LabVIEW Measurement	
Writer_Version	2
Reader_Version	2
Separator	Tab
Decimal_Separator	.
Multi_Headings	Yes
X_Columns	One
Time_Pref	Relative
Operator	bjl40
Description	Time Domain Data
Date	1903/12/31
Time	19:00:00
***End_of_Header***	
	
Channels	1	
Samples	10000	
Date	1903/12/31	
Time	19:00:00	
X_Dimension	Time	
X0	0.0000000000000000E+0	
Delta_X	0.001000	
***End_of_Header***		
X_Value	Untitled	Comment
0.000000	1.808725	Tare Values:0.000000, 0.000000, 0.000000, 0.000000\0D\0A
0.001000	1.889571
0.002000	1.910829
0.003000	1.881519
0.004000	1.877654
0.005000	1.882485
0.006000	1.827085
0.007000	1.719183
0.008000	1.598075
0.009000	1.534945
0.010000	1.475035
0.011000	1.433163
0.012000	1.430908
0.013000	1.354894
0.014000	1.254723
0.015000	1.126207
0.016000	1.019272
0.017000	0.977722
0.018000	1.030867
0.019000	1.161960
0.020000	1.475680
0.021000	1.719183
0.022000	1.834171
0.023000	1.921459
0.024000	1.934986
0.025000	1.913728
0.026000	1.807437
0.027000	1.727558
0.028000	1.704367
0.029000	1.688584
0.030000	1.694382
0.031000	1.716284
0.032000	1.722082
0.033000	1.642525
0.034000	1.494361
0.035000	1.336857
0.036000	1.353928
0.037000	1.572308
0.038000	1.940784
0.039000	2.292512
0.040000	2.402990
0.041000	2.412331
0.042000	2.348556
0.043000	2.164318
0.044000	1.886994
0.045000	1.543642
0.046000	1.308513
0.047000	1.242805
0.048000	1.334602
0.049000	1.403530
0.050000	1.370033
0.051000	1.318497
0.052000	1.324617
0.053000	1.410294
0.054000	1.467627
0.055000	1.582293
0.056000	1.709842
0.057000	1.762988
0.058000	1.804216
0.059000	1.776516
0.060000	1.565544
0.061000	1.328160
0.062000	1.218004
0.063000	1.236041
0.064000	1.351673
0.065000	1.375830
0.066000	1.362624
0.067000	1.459575
0.068000	1.525926
0.069000	1.656697
0.070000	1.749138
0.071000	1.745595
0.072000	1.675056
0.073000	1.561035
0.074000	1.413515
0.075000	1.285322
0.076000	1.182252
0.077000	1.126529
0.078000	1.080148
0.079000	1.135226
0.080000	1.333314
0.081000	1.534301
0.082000	1.723370
0.083000	1.856395
0.084000	1.969773
0.085000	2.011001
0.086000	2.081218
0.087000	2.093779
0.088000	2.114715
0.089000	2.167539
0.090000	2.102798
0.091000	1.829339
0.092000	1.502091
0.093000	1.354572
0.094000	1.311734
0.095000	1.252790
0.096000	1.236363
0.097000	1.375508
0.098000	1.617723
0.099000	1.753647
0.100000	1.873466
0.101000	1.906320
0.102000	1.974604
0.103000	2.100543
0.104000	2.187509
0.105000	2.139195
0.106000	1.960110
0.107000	1.725947
0.108000	1.539132
0.109000	1.444436
0.110000	1.393545
0.111000	1.360692
0.112000	1.335568
0.113000	1.252468
0.114000	1.217682
0.115000	1.205442
0.116000	1.179675
0.117000	1.151653
0.118000	1.123952
0.119000	1.170012
0.120000	1.292086
0.121000	1.499837
0.122000	1.639626
0.123000	1.726913
0.124000	1.819032
0.125000	1.972994
0.126000	1.997151
0.127000	1.922103
0.128000	1.847699
0.129000	1.757512
0.130000	1.662816
0.131000	1.579716
0.132000	1.495972
0.133000	1.441860
0.134000	1.479867
0.135000	1.646390
0.136000	1.882163
0.137000	1.943039
0.138000	1.853497
0.139000	1.685363
0.140000	1.499837
0.141000	1.451522
0.142000	1.562001
0.143000	1.731423
0.144000	1.850276
0.145000	1.957855
0.146000	1.934986
0.147000	1.836103
0.148000	1.643491
0.149000	1.503702
0.150000	1.381306
0.151000	1.280812
0.152000	1.172589
0.153000	1.041818
0.154000	0.976433
0.155000	1.043107
0.156000	1.326872
0.157000	1.612570
0.158000	1.819032
0.159000	1.885384
0.160000	1.880552
0.161000	1.850276
0.162000	1.884096
0.163000	1.936919
0.164000	1.911474
0.165000	1.825796
0.166000	1.729812
0.167000	1.645423
0.168000	1.597431
0.169000	1.523994
0.170000	1.505312
0.171000	1.507889
0.172000	1.535267
0.173000	1.571020
0.174000	1.489208
0.175000	1.443792
0.176000	1.522383
0.177000	1.658629
0.178000	1.735610
0.179000	1.650899
0.180000	1.507567
0.181000	1.292730
0.182000	1.115578
0.183000	1.011219
0.184000	0.992538
0.185000	1.023781
0.186000	1.278236
0.187000	1.601619
0.188000	1.856717
0.189000	1.979113
0.190000	1.964941
0.191000	1.917593
0.192000	1.935953
0.193000	2.061570
0.194000	2.179134
0.195000	2.186543
0.196000	2.077352
0.197000	1.932088
0.198000	1.875399
0.199000	1.697603
0.200000	1.482444
0.201000	1.325584
0.202000	1.255689
0.203000	1.283711
0.204000	1.404819
0.205000	1.505312
0.206000	1.609671
0.207000	1.628030
0.208000	1.486309
0.209000	1.409006
0.210000	1.373576
0.211000	1.359081
0.212000	1.334924
0.213000	1.355216
0.214000	1.409006
0.215000	1.617723
0.216000	1.944971
0.217000	2.018731
0.218000	2.002948
0.219000	1.851242
0.220000	1.594855
0.221000	1.396766
0.222000	1.268573
0.223000	1.283711
0.224000	1.282745
0.225000	1.414482
0.226000	1.620622
0.227000	1.730456
0.228000	1.771362
0.229000	1.818066
0.230000	1.833205
0.231000	1.698247
0.232000	1.594855
0.233000	1.509177
0.234000	1.427043
0.235000	1.418347
0.236000	1.460219
0.237000	1.477612
0.238000	1.525604
0.239000	1.570053
0.240000	1.604839
0.241000	1.592278
0.242000	1.684397
0.243000	1.779415
0.244000	1.707266
0.245000	1.566832
0.246000	1.494039
0.247000	1.483410
0.248000	1.464084
0.249000	1.565544
0.250000	1.816456
0.251000	2.033225
0.252000	2.140805
0.253000	2.173981
0.254000	2.125022
0.255000	1.972994
0.256000	1.614824
0.257000	1.246026
0.258000	1.048582
0.259000	0.945190
0.260000	0.941969
0.261000	1.098507
0.262000	1.394512
0.263000	1.604517
0.264000	1.725947
0.265000	1.596465
0.266000	1.418025
0.267000	1.325584
0.268000	1.334602
0.269000	1.389358
0.270000	1.453455
0.271000	1.523672
0.272000	1.615469
0.273000	1.678921
0.274000	1.677955
0.275000	1.613536
0.276000	1.564578
0.277000	1.548473
0.278000	1.566832
0.279000	1.623843
0.280000	1.656697
0.281000	1.710809
0.282000	1.766853
0.283000	1.689872
0.284000	1.492428
0.285000	1.422212
0.286000	1.433485
0.287000	1.482766
0.288000	1.567477
0.289000	1.772329
0.290000	2.000050
0.291000	2.156910
0.292000	2.241299
0.293000	2.257403
0.294000	2.297021
0.295000	2.335350
0.296000	2.286070
0.297000	2.158198
0.298000	1.828051
0.299000	1.598075
0.300000	1.635438
0.301000	1.810980
0.302000	1.790044
0.303000	1.572952
0.304000	1.348774
0.305000	1.120732
0.306000	1.036665
0.307000	1.053736
0.308000	1.098829
0.309000	1.179675
0.310000	1.299172
0.311000	1.493717
0.312000	1.538810
0.313000	1.488241
0.314000	1.419957
0.315000	1.348452
0.316000	1.327194
0.317000	1.305936
0.318000	1.281779
0.319000	1.265996
0.320000	1.241517
0.321000	1.165825
0.322000	1.124597
0.323000	1.188049
0.324000	1.310767
0.325000	1.330415
0.326000	1.340078
0.327000	1.378407
0.328000	1.464406
0.329000	1.649611
0.330000	1.872500
0.331000	2.073487
0.332000	2.094423
0.333000	1.936597
0.334000	1.753003
0.335000	1.652509
0.336000	1.551694
0.337000	1.517552
0.338000	1.580038
0.339000	1.695026
0.340000	1.838036
0.341000	1.899878
0.342000	1.844478
0.343000	1.783924
0.344000	1.771040
0.345000	1.748494
0.346000	1.671835
0.347000	1.594210
0.348000	1.646712
0.349000	1.659918
0.350000	1.576495
0.351000	1.462152
0.352000	1.347164
0.353000	1.315921
0.354000	1.332025
0.355000	1.424144
0.356000	1.559424
0.357000	1.798096
0.358000	1.915339
0.359000	1.884418
0.360000	1.677633
0.361000	1.454743
0.362000	1.370999
0.363000	1.322041
0.364000	1.219615
0.365000	1.249569
0.366000	1.402886
0.367000	1.680210
0.368000	2.038057
0.369000	2.227449
0.370000	2.206512
0.371000	2.069622
0.372000	2.022596
0.373000	2.005847
0.374000	1.947870
0.375000	1.905354
0.376000	1.847055
0.377000	1.853174
0.378000	1.703400
0.379000	1.549439
0.380000	1.476968
0.381000	1.254079
0.382000	1.066298
0.383000	0.961939
0.384000	0.992860
0.385000	1.172589
0.386000	1.293374
0.387000	1.496294
0.388000	1.755902
0.389000	2.021630
0.390000	2.086371
0.391000	2.040311
0.392000	1.965263
0.393000	1.833205
0.394000	1.725625
0.395000	1.675056
0.396000	1.571664
0.397000	1.487919
0.398000	1.420924
0.399000	1.439605
0.400000	1.570375
0.401000	1.679888
0.402000	1.858650
0.403000	2.086371
0.404000	2.116326
0.405000	1.964619
0.406000	1.759767
0.407000	1.526893
0.408000	1.319464
0.409000	1.153585
0.410000	1.080470
0.411000	1.117189
0.412000	1.223480
0.413000	1.375186
0.414000	1.489208
0.415000	1.617401
0.416000	1.737865
0.417000	1.697603
0.418000	1.582937
0.419000	1.375830
0.420000	1.195780
0.421000	1.070485
0.422000	1.016695
0.423000	1.118155
0.424000	1.353606
0.425000	1.552016
0.426000	1.743662
0.427000	1.980724
0.428000	2.192662
0.429000	2.284137
0.430000	2.286070
0.431000	2.163030
0.432000	1.962042
0.433000	1.847055
0.434000	1.724981
0.435000	1.682464
0.436000	1.705333
0.437000	1.685685
0.438000	1.761377
0.439000	1.821287
0.440000	1.728524
0.441000	1.661206
0.442000	1.634794
0.443000	1.853819
0.444000	2.083150
0.445000	1.911474
0.446000	1.595177
0.447000	1.298206
0.448000	1.151653
0.449000	1.061466
0.450000	0.990283
0.451000	1.035699
0.452000	1.244094
0.453000	1.410616
0.454000	1.646068
0.455000	1.950125
0.456000	2.180423
0.457000	2.244198
0.458000	2.202647
0.459000	2.008746
0.460000	1.819999
0.461000	1.673768
0.462000	1.612248
0.463000	1.462474
0.464000	1.245060
0.465000	1.080148
0.466000	1.008321
0.467000	0.951310
0.468000	0.954531
0.469000	1.122986
0.470000	1.385815
0.471000	1.837070
0.472000	2.204258
0.473000	2.387530
0.474000	2.441642
0.475000	2.404923
0.476000	2.193307
0.477000	1.874111
0.478000	1.609349
0.479000	1.439605
0.480000	1.328482
0.481000	1.216394
0.482000	1.114290
0.483000	1.046972
0.484000	1.043751
0.485000	1.168724
0.486000	1.359081
0.487000	1.465373
0.488000	1.552338
0.489000	1.650255
0.490000	1.778771
0.491000	1.905676
0.492000	1.932088
0.493000	1.970417
0.494000	2.053195
0.495000	2.040956
0.496000	1.926934
0.497000	1.759445
0.498000	1.646390
0.499000	1.574563
0.500000	1.537522
0.501000	1.590023
0.502000	1.676989
0.503000	1.753325
0.504000	1.821287
0.505000	1.724659
0.506000	1.567799
0.507000	1.406107
0.508000	1.222191
0.509000	1.084335
0.510000	1.033766
0.511000	1.025714
0.512000	1.084335
0.513000	1.188049
0.514000	1.394834
0.515000	1.686329
0.516000	1.852852
0.517000	1.852852
0.518000	2.010679
0.519000	2.176880
0.520000	2.203936
0.521000	2.063824
0.522000	1.957855
0.523000	1.779737
0.524000	1.616435
0.525000	1.500481
0.526000	1.402242
0.527000	1.445725
0.528000	1.572630
0.529000	1.667326
0.530000	1.752037
0.531000	1.793909
0.532000	1.773295
0.533000	1.666682
0.534000	1.618367
0.535000	1.635761
0.536000	1.703078
0.537000	1.762022
0.538000	1.802283
0.539000	1.884740
0.540000	2.020986
0.541000	2.008424
0.542000	1.973638
0.543000	1.878942
0.544000	1.719183
0.545000	1.528825
0.546000	1.276303
0.547000	1.131039
0.548000	1.081436
0.549000	1.101406
0.550000	1.183862
0.551000	1.355216
0.552000	1.547829
0.553000	1.597753
0.554000	1.552338
0.555000	1.528181
0.556000	1.507889
0.557000	1.522705
0.558000	1.543642
0.559000	1.559746
0.560000	1.668614
0.561000	1.803894
0.562000	1.877009
0.563000	1.838036
0.564000	1.709198
0.565000	1.497582
0.566000	1.296273
0.567000	1.231210
0.568000	1.237330
0.569000	1.285322
0.570000	1.322363
0.571000	1.311089
0.572000	1.319142
0.573000	1.325261
0.574000	1.330093
0.575000	1.361980
0.576000	1.426721
0.577000	1.531080
0.578000	1.664427
0.579000	1.789400
0.580000	1.851886
0.581000	1.873466
0.582000	1.777160
0.583000	1.616113
0.584000	1.529791
0.585000	1.484054
0.586000	1.406107
0.587000	1.341044
0.588000	1.269217
0.589000	1.154874
0.590000	1.056957
0.591000	1.055024
0.592000	1.235397
0.593000	1.753647
0.594000	2.441320
0.595000	2.498653
0.596000	2.772756
0.597000	2.771467
0.598000	2.770501
0.599000	2.760838
0.600000	2.487701
0.601000	2.154011
0.602000	1.719827
0.603000	1.528503
0.604000	1.541387
0.605000	1.562645
0.606000	1.510144
0.607000	1.449590
0.608000	1.225412
0.609000	1.026358
0.610000	0.913625
0.611000	0.843086
0.612000	0.882382
0.613000	1.045684
0.614000	1.261809
0.615000	1.449590
0.616000	1.598398
0.617000	1.581327
0.618000	1.495005
0.619000	1.435418
0.620000	1.400632
0.621000	1.369711
0.622000	1.349096
0.623000	1.314954
0.624000	1.287899
0.625000	1.349419
0.626000	1.525926
0.627000	1.532368
0.628000	1.434774
0.629000	1.343299
0.630000	1.265352
0.631000	1.220903
0.632000	1.276303
0.633000	1.407073
0.634000	1.581327
0.635000	1.771040
0.636000	1.922747
0.637000	1.982979
0.638000	1.946260
0.639000	1.810658
0.640000	1.677955
0.641000	1.616435
0.642000	1.623521
0.643000	1.649289
0.644000	1.707266
0.645000	1.732711
0.646000	1.728202
0.647000	1.702434
0.648000	1.645101
0.649000	1.630285
0.650000	1.666360
0.651000	1.634794
0.652000	1.522705
0.653000	1.428976
0.654000	1.378085
0.655000	1.373898
0.656000	1.315277
0.657000	1.277914
0.658000	1.336857
0.659000	1.375186
0.660000	1.495649
0.661000	1.830628
0.662000	2.066079
0.663000	2.292190
0.664000	2.355642
0.665000	2.283815
0.666000	2.121157
0.667000	1.927578
0.668000	1.789722
0.669000	1.789400
0.670000	1.853174
0.671000	1.922103
0.672000	1.937241
0.673000	1.670869
0.674000	1.356827
0.675000	1.151975
0.676000	1.057601
0.677000	1.106237
0.678000	1.303681
0.679000	1.489208
0.680000	1.485020
0.681000	1.335568
0.682000	1.226378
0.683000	1.191592
0.684000	1.246993
0.685000	1.459253
0.686000	1.842545
0.687000	2.208445
0.688000	2.377867
0.689000	2.422638
0.690000	2.400092
0.691000	2.326976
0.692000	2.094423
0.693000	1.652832
0.694000	1.379373
0.695000	1.178709
0.696000	1.104627
0.697000	1.157450
0.698000	1.296917
0.699000	1.449590
0.700000	1.376152
0.701000	1.232820
0.702000	1.200933
0.703000	1.299494
0.704000	1.312378
0.705000	1.321718
0.706000	1.365523
0.707000	1.432841
0.708000	1.457642
0.709000	1.377763
0.710000	1.376474
0.711000	1.363591
0.712000	1.381306
0.713000	1.496294
0.714000	1.550406
0.715000	1.540098
0.716000	1.571342
0.717000	1.599686
0.718000	1.578106
0.719000	1.619978
0.720000	1.688906
0.721000	1.770718
0.722000	1.806471
0.723000	1.757512
0.724000	1.754936
0.725000	1.833849
0.726000	1.743340
0.727000	1.530758
0.728000	1.421890
0.729000	1.398377
0.730000	1.396122
0.731000	1.451845
0.732000	1.552016
0.733000	1.713063
0.734000	1.879586
0.735000	1.993286
0.736000	2.108273
0.737000	2.222939
0.738000	2.315058
0.739000	2.329553
0.740000	2.186865
0.741000	2.031615
0.742000	1.883129
0.743000	1.680854
0.744000	1.433807
0.745000	1.255045
0.746000	1.224446
0.747000	1.219615
0.748000	1.191914
0.749000	1.171300
0.750000	1.268251
0.751000	1.466661
0.752000	1.665393
0.753000	1.800351
0.754000	1.806793
0.755000	1.804216
0.756000	1.681176
0.757000	1.519807
0.758000	1.497260
0.759000	1.554915
0.760000	1.434774
0.761000	1.190626
0.762000	0.936172
0.763000	0.808944
0.764000	0.844375
0.765000	0.969669
0.766000	1.223158
0.767000	1.624487
0.768000	1.995540
0.769000	2.251928
0.770000	2.391073
0.771000	2.406211
0.772000	2.402668
0.773000	2.336317
0.774000	2.104086
0.775000	1.925324
0.776000	1.802283
0.777000	1.693738
0.778000	1.604517
0.779000	1.541709
0.780000	1.524638
0.781000	1.518196
0.782000	1.502091
0.783000	1.415448
0.784000	1.298528
0.785000	1.328160
0.786000	1.372931
0.787000	1.445081
0.788000	1.433807
0.789000	1.407396
0.790000	1.300460
0.791000	1.166147
0.792000	1.110102
0.793000	1.139735
0.794000	1.250858
0.795000	1.361336
0.796000	1.363269
0.797000	1.306902
0.798000	1.343621
0.799000	1.404175
0.800000	1.550083
0.801000	1.777160
0.802000	1.833849
0.803000	1.841901
0.804000	2.062536
0.805000	2.290257
0.806000	2.361118
0.807000	2.296055
0.808000	1.966874
0.809000	1.687618
0.810000	1.539132
0.811000	1.457642
0.812000	1.432519
0.813000	1.598075
0.814000	1.825474
0.815000	1.890860
0.816000	1.809047
0.817000	1.681176
0.818000	1.557814
0.819000	1.515941
0.820000	1.528825
0.821000	1.565866
0.822000	1.619978
0.823000	1.654442
0.824000	1.669258
0.825000	1.580360
0.826000	1.368744
0.827000	1.154229
0.828000	1.062432
0.829000	1.082080
0.830000	1.211562
0.831000	1.344587
0.832000	1.481155
0.833000	1.523027
0.834000	1.631895
0.835000	1.823864
0.836000	1.957211
0.837000	2.126955
0.838000	2.282205
0.839000	2.333096
0.840000	2.257403
0.841000	1.955278
0.842000	1.587446
0.843000	1.350385
0.844000	1.303681
0.845000	1.284033
0.846000	1.342332
0.847000	1.508533
0.848000	1.712741
0.849000	1.980402
0.850000	2.247741
0.851000	2.296055
0.852000	2.166251
0.853000	1.940784
0.854000	1.687296
0.855000	1.446369
0.856000	1.336857
0.857000	1.160993
0.858000	1.124597
0.859000	1.149398
0.860000	1.180963
0.861000	1.229922
0.862000	1.249569
0.863000	1.254401
0.864000	1.237008
0.865000	1.280168
0.866000	1.389036
0.867000	1.380984
0.868000	1.254079
0.869000	1.107526
0.870000	1.093354
0.871000	1.261809
0.872000	1.538810
0.873000	1.768141
0.874000	1.963975
0.875000	2.141771
0.876000	2.203614
0.877000	2.152723
0.878000	2.019697
0.879000	1.853497
0.880000	1.785857
0.881000	1.782636
0.882000	1.786179
0.883000	1.769752
0.884000	1.690839
0.885000	1.694382
0.886000	1.857684
0.887000	1.997473
0.888000	1.857362
0.889000	1.808403
0.890000	1.764920
0.891000	1.558136
0.892000	1.361336
0.893000	1.251180
0.894000	1.212206
0.895000	1.230888
0.896000	1.237330
0.897000	1.166791
0.898000	1.152619
0.899000	1.225734
0.900000	1.348130
0.901000	1.569087
0.902000	1.736576
0.903000	1.848343
0.904000	1.925002
0.905000	2.048364
0.906000	2.147247
0.907000	2.215853
0.908000	2.231958
0.909000	2.140805
0.910000	1.971383
0.911000	1.778771
0.912000	1.738509
0.913000	1.780059
0.914000	1.800351
0.915000	1.808081
0.916000	1.727558
0.917000	1.668614
0.918000	1.617723
0.919000	1.490174
0.920000	1.472781
0.921000	1.399987
0.922000	1.310123
0.923000	1.241195
0.924000	1.196102
0.925000	1.186761
0.926000	1.190948
0.927000	1.253112
0.928000	1.376797
0.929000	1.609993
0.930000	1.725625
0.931000	1.698247
0.932000	1.567799
0.933000	1.379373
0.934000	1.227667
0.935000	1.149076
0.936000	1.109458
0.937000	1.234109
0.938000	1.515297
0.939000	1.953668
0.940000	2.296699
0.941000	2.218752
0.942000	1.892792
0.943000	1.606128
0.944000	1.420601
0.945000	1.296273
0.946000	1.282101
0.947000	1.399665
0.948000	1.442182
0.949000	1.431553
0.950000	1.413193
0.951000	1.458286
0.952000	1.578428
0.953000	1.809047
0.954000	1.951091
0.955000	1.957855
0.956000	1.929189
0.957000	1.818710
0.958000	1.593244
0.959000	1.365845
0.960000	1.202544
0.961000	1.164536
0.962000	1.217682
0.963000	1.372287
0.964000	1.757834
0.965000	2.249673
0.966000	2.356287
0.967000	2.368848
0.968000	2.389140
0.969000	2.407500
0.970000	2.340826
0.971000	1.969773
0.972000	1.539454
0.973000	1.325584
0.974000	1.293374
0.975000	1.436384
0.976000	1.569409
0.977000	1.628352
0.978000	1.686651
0.979000	1.665393
0.980000	1.631573
0.981000	1.620300
0.982000	1.569731
0.983000	1.482121
0.984000	1.381306
0.985000	1.377763
0.986000	1.551050
0.987000	1.697281
0.988000	1.574885
0.989000	1.446047
0.990000	1.357471
0.991000	1.342655
0.992000	1.370033
0.993000	1.426721
0.994000	1.425111
0.995000	1.337823
0.996000	1.257622
0.997000	1.279202
0.998000	1.346842
0.999000	1.519484
1.000000	1.763310
1.001000	1.839002
1.002000	1.776838
1.003000	1.691161
1.004000	1.557492
1.005000	1.446047
1.006000	1.466017
1.007000	1.601941
1.008000	1.613858
1.009000	1.487919
1.010000	1.298850
1.011000	1.201577
1.012000	1.200933
1.013000	1.333314
1.014000	1.574563
1.015000	1.772651
1.016000	1.869601
1.017000	1.781992
1.018000	1.623843
1.019000	1.607738
1.020000	1.604839
1.021000	1.604839
1.022000	1.608705
1.023000	1.667004
1.024000	1.786823
1.025000	1.867347
1.026000	1.843189
1.027000	1.739475
1.028000	1.621588
1.029000	1.485987
1.030000	1.334280
1.031000	1.261809
1.032000	1.224124
1.033000	1.261165
1.034000	1.407396
1.035000	1.588735
1.036000	1.752681
1.037000	1.810014
1.038000	1.879264
1.039000	2.057060
1.040000	2.272864
1.041000	2.386886
1.042000	2.413620
1.043000	2.380122
1.044000	2.286070
1.045000	1.961720
1.046000	1.485342
1.047000	1.195457
1.048000	0.964838
1.049000	0.864022
1.050000	0.874652
1.051000	1.044717
1.052000	1.401276
1.053000	1.876365
1.054000	2.070266
1.055000	2.104408
1.056000	2.089914
1.057000	1.991675
1.058000	1.773617
1.059000	1.565544
1.060000	1.342332
1.061000	1.312056
1.062000	1.458931
1.063000	1.535911
1.064000	1.630929
1.065000	1.746883
1.066000	1.852530
1.067000	1.845444
1.068000	1.912762
1.069000	1.931121
1.070000	1.836748
1.071000	1.662172
1.072000	1.534301
1.073000	1.470204
1.074000	1.495972
1.075000	1.594855
1.076000	1.529791
1.077000	1.367134
1.078000	1.255689
1.079000	1.218326
1.080000	1.203832
1.081000	1.139413
1.082000	1.135870
1.083000	1.162926
1.084000	1.244738
1.085000	1.397089
1.086000	1.586802
1.087000	1.704367
1.088000	1.773295
1.089000	1.841901
1.090000	1.889893
1.091000	1.924357
1.092000	1.823542
1.093000	1.693415
1.094000	1.582937
1.095000	1.471814
1.096000	1.437995
1.097000	1.414804
1.098000	1.351351
1.099000	1.377441
1.100000	1.356505
1.101000	1.417058
1.102000	1.512398
1.103000	1.581649
1.104000	1.590989
1.105000	1.606772
1.106000	1.643813
1.107000	1.906964
1.108000	1.899234
1.109000	1.503380
1.110000	1.260843
1.111000	1.256333
1.112000	1.359726
1.113000	1.557169
1.114000	1.859938
1.115000	2.116326
1.116000	2.221329
1.117000	2.310227
1.118000	2.440031
1.119000	2.495110
1.120000	2.498975
1.121000	2.472241
1.122000	2.195883
1.123000	1.548795
1.124000	1.046006
1.125000	0.878517
1.126000	0.947445
1.127000	1.084335
1.128000	1.161315
1.129000	1.160349
1.130000	1.156806
1.131000	1.143600
1.132000	1.129428
1.133000	1.125563
1.134000	1.141668
1.135000	1.215427
1.136000	1.285322
1.137000	1.277269
1.138000	1.225090
1.139000	1.155840
1.140000	1.177420
1.141000	1.235719
1.142000	1.393545
1.143000	1.675056
1.144000	1.932410
1.145000	2.087337
1.146000	2.139195
1.147000	2.061570
1.148000	1.840291
1.149000	1.531402
1.150000	1.382594
1.151000	1.512076
1.152000	1.510788
1.153000	1.357793
1.154000	1.267929
1.155000	1.288221
1.156000	1.323007
1.157000	1.382594
1.158000	1.610315
1.159000	1.915661
1.160000	2.151434
1.161000	2.185576
1.162000	2.049652
1.163000	1.956889
1.164000	1.913728
1.165000	1.861227
1.166000	1.811302
1.167000	1.808403
1.168000	1.865092
1.169000	1.912118
1.170000	1.953346
1.171000	1.960110
1.172000	1.896657
1.173000	2.011323
1.174000	2.038379
1.175000	1.987810
1.176000	1.838358
1.177000	1.612248
1.178000	1.404175
1.179000	1.292086
1.180000	1.252468
1.181000	1.285966
1.182000	1.364879
1.183000	1.382916
1.184000	1.386459
1.185000	1.408684
1.186000	1.490174
1.187000	1.552338
1.188000	1.619334
1.189000	1.706943
1.190000	1.775228
1.191000	1.683431
1.192000	1.571664
1.193000	1.469238
1.194000	1.384849
1.195000	1.348130
1.196000	1.432197
1.197000	1.544930
1.198000	1.727880
1.199000	1.994252
1.200000	2.110528
1.201000	2.176236
1.202000	2.119547
1.203000	2.011645
1.204000	1.760411
1.205000	1.458286
1.206000	1.257300
1.207000	1.139413
1.208000	1.084335
1.209000	1.093676
1.210000	1.066620
1.211000	0.991894
1.212000	0.963872
1.213000	1.019916
1.214000	1.196424
1.215000	1.485342
1.216000	1.861227
1.217000	2.095390
1.218000	2.211344
1.219000	2.212954
1.220000	2.060603
1.221000	1.867991
1.222000	1.588091
1.223000	1.408040
1.224000	1.433807
1.225000	1.477290
1.226000	1.487597
1.227000	1.349741
1.228000	1.221869
1.229000	1.164858
1.230000	1.165825
1.231000	1.232498
1.232000	1.278880
1.233000	1.345876
1.234000	1.464084
1.235000	1.499192
1.236000	1.493717
1.237000	1.303359
1.238000	1.163248
1.239000	1.227989
1.240000	1.577461
1.241000	2.081218
1.242000	2.436488
1.243000	2.499297
1.244000	2.766636
1.245000	2.768891
1.246000	2.771467
1.247000	2.763737
1.248000	2.480615
1.249000	1.651221
1.250000	1.105915
1.251000	0.964516
1.252000	0.988029
1.253000	1.118155
1.254000	1.362624
1.255000	1.712419
1.256000	2.004237
1.257000	2.077997
1.258000	1.967518
1.259000	1.788111
1.260000	1.605162
1.261000	1.536233
1.262000	1.480511
1.263000	1.493717
1.264000	1.437995
1.265000	1.237330
1.266000	1.023137
1.267000	0.944546
1.268000	0.930374
1.269000	0.947767
1.270000	1.054058
1.271000	1.216394
1.272000	1.416092
1.273000	1.553626
1.274000	1.574885
1.275000	1.571664
1.276000	1.549117
1.277000	1.503058
1.278000	1.442826
1.279000	1.384527
1.280000	1.378407
1.281000	1.483410
1.282000	1.655086
1.283000	1.829662
1.284000	2.009712
1.285000	2.087982
1.286000	2.024207
1.287000	1.897301
1.288000	1.793909
1.289000	1.620300
1.290000	1.500159
1.291000	1.405785
1.292000	1.399665
1.293000	1.385171
1.294000	1.370677
1.295000	1.356505
1.296000	1.353928
1.297000	1.339434
1.298000	1.304003
1.299000	1.263097
1.300000	1.317209
1.301000	1.483410
1.302000	1.687296
1.303000	1.796164
1.304000	1.913406
1.305000	1.853497
1.306000	1.725303
1.307000	1.679888
1.308000	1.951413
1.309000	2.391717
1.310000	2.494788
1.311000	2.498008
1.312000	2.497042
1.313000	2.388174
1.314000	1.750104
1.315000	1.152619
1.316000	0.904284
1.317000	0.890434
1.318000	0.904928
1.319000	0.945512
1.320000	1.036987
1.321000	1.146821
1.322000	1.290153
1.323000	1.438639
1.324000	1.618045
1.325000	1.752681
1.326000	1.854785
1.327000	1.938530
1.328000	2.087015
1.329000	2.311193
1.330000	2.402024
1.331000	2.383021
1.332000	2.280272
1.333000	2.091847
1.334000	1.788111
1.335000	1.556847
1.336000	1.271794
1.337000	1.048582
1.338000	1.020238
1.339000	1.120732
1.340000	1.253112
1.341000	1.321718
1.342000	1.321718
1.343000	1.153263
1.344000	0.988995
1.345000	0.908149
1.346000	0.899775
1.347000	0.968703
1.348000	1.235397
1.349000	1.737220
1.350000	2.079929
1.351000	2.114071
1.352000	2.063824
1.353000	1.915661
1.354000	1.707588
1.355000	1.434451
1.356000	1.285966
1.357000	1.170012
1.358000	1.140379
1.359000	1.190304
1.360000	1.388070
1.361000	1.716284
1.362000	2.104086
1.363000	2.302497
1.364000	2.272864
1.365000	2.188153
1.366000	2.023885
1.367000	1.904387
1.368000	1.845766
1.369000	1.738831
1.370000	1.568765
1.371000	1.348130
1.372000	1.265352
1.373000	1.291119
1.374000	1.397089
1.375000	1.550083
1.376000	1.746239
1.377000	2.002948
1.378000	2.155621
1.379000	2.196205
1.380000	2.066723
1.381000	1.870245
1.382000	1.738187
1.383000	1.595821
1.384000	1.600652
1.385000	1.806471
1.386000	1.938530
1.387000	1.978791
1.388000	1.971383
1.389000	2.048686
1.390000	2.145314
1.391000	2.210378
1.392000	2.048686
1.393000	1.780059
1.394000	1.465373
1.395000	1.263741
1.396000	1.202866
1.397000	1.151975
1.398000	1.098185
1.399000	1.053092
1.400000	1.025714
1.401000	1.040852
1.402000	1.131683
1.403000	1.227345
1.404000	1.404175
1.405000	1.686007
1.406000	1.877654
1.407000	1.881841
1.408000	1.742374
1.409000	1.503380
1.410000	1.303037
1.411000	1.199323
1.412000	1.202866
1.413000	1.230566
1.414000	1.225090
1.415000	1.326550
1.416000	1.409972
1.417000	1.542353
1.418000	1.633828
1.419000	1.701790
1.420000	1.697603
1.421000	1.685041
1.422000	1.664749
1.423000	1.699535
1.424000	1.802283
1.425000	1.939496
1.426000	2.075420
1.427000	2.102154
1.428000	2.028072
1.429000	1.989420
1.430000	1.866380
1.431000	1.690195
1.432000	1.510144
1.433000	1.631895
1.434000	1.688262
1.435000	1.524316
1.436000	1.280490
1.437000	1.170012
1.438000	1.142956
1.439000	1.130716
1.440000	1.167757
1.441000	1.273726
1.442000	1.426399
1.443000	1.609671
1.444000	1.716284
1.445000	1.675378
1.446000	1.453777
1.447000	1.306258
1.448000	1.296917
1.449000	1.349096
1.450000	1.451522
1.451000	1.641558
1.452000	2.020342
1.453000	2.326332
1.454000	2.337927
1.455000	2.240977
1.456000	2.109562
1.457000	1.955601
1.458000	1.824186
1.459000	1.677633
1.460000	1.511754
1.461000	1.434129
1.462000	1.485342
1.463000	1.616757
1.464000	1.785857
1.465000	1.769752
1.466000	1.558136
1.467000	1.386459
1.468000	1.254723
1.469000	1.119121
1.470000	1.048905
1.471000	1.080470
1.472000	1.198678
1.473000	1.394512
1.474000	1.440893
1.475000	1.518840
1.476000	1.692449
1.477000	1.915983
1.478000	1.983945
1.479000	1.958821
1.480000	1.876365
1.481000	1.795519
1.482000	1.685685
1.483000	1.628030
1.484000	1.686007
1.485000	1.760411
1.486000	2.015832
1.487000	2.221007
1.488000	2.230025
1.489000	2.038057
1.490000	1.605806
1.491000	1.186439
1.492000	0.978044
1.493000	0.897842
1.494000	0.951954
1.495000	1.120409
1.496000	1.372931
1.497000	1.570375
1.498000	1.595499
1.499000	1.590345
1.500000	1.602585
1.501000	1.614502
1.502000	1.579072
1.503000	1.449268
1.504000	1.250858
1.505000	1.059856
1.506000	0.900097
1.507000	0.863056
1.508000	0.942935
1.509000	1.243127
1.510000	1.780703
1.511000	2.243553
1.512000	2.436166
1.513000	2.465477
1.514000	2.448728
1.515000	2.376579
1.516000	2.154333
1.517000	1.914372
1.518000	1.783602
1.519000	1.765243
1.520000	1.779737
1.521000	1.843512
1.522000	1.854463
1.523000	1.805827
1.524000	1.738509
1.525000	1.717573
1.526000	1.747205
1.527000	1.740763
1.528000	1.581004
1.529000	1.525282
1.530000	1.680854
1.531000	1.805504
1.532000	1.868635
1.533000	1.966874
1.534000	2.060926
1.535000	2.164962
1.536000	2.032581
1.537000	1.669580
1.538000	1.386459
1.539000	1.278236
1.540000	1.207697
1.541000	1.207053
1.542000	1.212206
1.543000	1.206409
1.544000	1.217038
1.545000	1.229277
1.546000	1.183218
1.547000	1.068552
1.548000	0.975145
1.549000	1.024425
1.550000	1.130716
1.551000	1.452811
1.552000	1.987810
1.553000	2.318279
1.554000	2.367238
1.555000	2.260624
1.556000	2.020664
1.557000	1.944971
1.558000	1.790366
1.559000	1.570375
1.560000	1.556847
1.561000	1.603229
1.562000	1.670869
1.563000	1.512720
1.564000	1.156162
1.565000	0.912337
1.566000	0.868854
1.567000	0.917168
1.568000	1.128462
1.569000	1.536233
1.570000	1.954312
1.571000	2.085727
1.572000	2.017121
1.573000	1.882807
1.574000	1.682142
1.575000	1.473747
1.576000	1.328482
1.577000	1.284033
1.578000	1.321718
1.579000	1.313022
1.580000	1.232820
1.581000	1.178709
1.582000	1.183218
1.583000	1.282745
1.584000	1.403853
1.585000	1.544930
1.586000	1.649933
1.587000	1.734321
1.588000	1.862515
1.589000	1.980080
1.590000	2.087015
1.591000	2.099577
1.592000	2.047075
1.593000	1.910507
1.594000	1.750104
1.595000	1.662494
1.596000	1.649611
1.597000	1.655730
1.598000	1.800673
1.599000	2.057060
1.600000	2.278340
1.601000	2.387852
1.602000	2.378189
1.603000	2.309583
1.604000	2.316991
1.605000	2.262879
1.606000	2.184288
1.607000	2.076386
1.608000	1.982657
1.609000	1.866380
1.610000	1.724659
1.611000	1.618367
1.612000	1.586480
1.613000	1.497582
1.614000	1.379695
1.615000	1.273726
1.616000	1.175165
1.617000	1.109136
1.618000	1.174521
1.619000	1.262453
1.620000	1.319464
1.621000	1.229599
1.622000	1.042141
1.623000	0.830525
1.624000	0.683328
1.625000	0.659815
1.626000	0.724233
1.627000	0.950022
1.628000	1.281457
1.629000	1.652187
1.630000	1.899878
1.631000	2.020986
1.632000	1.963331
1.633000	2.003915
1.634000	2.170760
1.635000	2.266100
1.636000	2.288002
1.637000	2.154977
1.638000	1.835459
1.639000	1.430908
1.640000	1.150686
1.641000	1.091743
1.642000	1.126529
1.643000	1.231210
1.644000	1.502413
1.645000	1.686329
1.646000	1.721438
1.647000	1.626420
1.648000	1.634472
1.649000	1.819032
1.650000	1.987810
1.651000	2.175269
1.652000	2.240332
1.653000	2.145959
1.654000	2.048686
1.655000	1.884096
1.656000	1.546540
1.657000	1.257622
1.658000	1.071773
1.659000	1.000590
1.660000	0.963550
1.661000	0.908149
1.662000	0.958074
1.663000	1.106237
1.664000	1.278558
1.665000	1.568765
1.666000	1.972994
1.667000	2.179779
1.668000	2.269965
1.669000	2.304107
1.670000	2.251284
1.671000	2.192340
1.672000	2.134685
1.673000	2.109562
1.674000	1.981046
1.675000	1.856073
1.676000	1.801961
1.677000	1.734321
1.678000	1.646712
1.679000	1.576495
1.680000	1.651543
1.681000	1.774261
1.682000	1.718861
1.683000	1.685685
1.684000	1.691483
1.685000	1.716284
1.686000	1.695670
1.687000	1.609993
1.688000	1.555237
1.689000	1.509177
1.690000	1.568121
1.691000	1.619012
1.692000	1.643491
1.693000	1.688262
1.694000	1.593888
1.695000	1.538166
1.696000	1.453777
1.697000	1.444436
1.698000	1.589379
1.699000	1.669903
1.700000	1.585514
1.701000	1.451845
1.702000	1.466017
1.703000	1.511754
1.704000	1.555881
1.705000	1.402886
1.706000	1.153263
1.707000	0.950988
1.708000	0.856936
1.709000	0.853071
1.710000	0.949699
1.711000	1.122986
1.712000	1.368744
1.713000	1.550406
1.714000	1.655408
1.715000	1.777160
1.716000	1.812268
1.717000	1.804538
1.718000	1.770396
1.719000	1.771040
1.720000	1.671191
1.721000	1.588413
1.722000	1.566188
1.723000	1.461830
1.724000	1.344587
1.725000	1.314632
1.726000	1.291119
1.727000	1.347808
1.728000	1.488241
1.729000	1.616435
1.730000	1.630285
1.731000	1.597109
1.732000	1.571020
1.733000	1.649289
1.734000	1.755902
1.735000	1.711453
1.736000	1.747849
1.737000	1.757512
1.738000	1.842545
1.739000	2.036124
1.740000	2.302819
1.741000	2.420061
1.742000	2.425859
1.743000	2.367238
1.744000	2.254505
1.745000	2.135974
1.746000	1.925646
1.747000	1.565866
1.748000	1.134904
1.749000	0.857581
1.750000	0.676241
1.751000	0.653373
1.752000	0.650474
1.753000	0.781888
1.754000	1.189338
1.755000	1.714352
1.756000	2.039345
1.757000	2.243553
1.758000	2.311838
1.759000	2.363051
1.760000	2.405567
1.761000	2.466121
1.762000	2.484480
1.763000	2.436166
1.764000	2.272220
1.765000	2.018087
1.766000	1.761700
1.767000	1.583903
1.768000	1.525604
1.769000	1.399665
1.770000	1.257622
1.771000	1.122986
1.772000	1.097541
1.773000	1.103983
1.774000	1.179997
1.775000	1.437350
1.776000	1.615469
1.777000	1.684397
1.778000	1.540098
1.779000	1.365845
1.780000	1.232820
1.781000	1.135548
1.782000	0.927475
1.783000	0.796383
1.784000	0.858225
1.785000	1.096574
1.786000	1.406429
1.787000	1.646712
1.788000	1.977503
1.789000	2.124700
1.790000	1.971383
1.791000	1.808403
1.792000	1.709520
1.793000	1.657663
1.794000	1.706621
1.795000	1.757834
1.796000	1.752359
1.797000	1.652187
1.798000	1.590023
1.799000	1.615147
1.800000	1.714674
1.801000	1.882485
1.802000	2.034514
1.803000	2.070910
1.804000	1.934664
1.805000	1.774905
1.806000	1.769108
1.807000	1.804216
1.808000	1.734321
1.809000	1.579072
1.810000	1.420924
1.811000	1.294663
1.812000	1.205120
1.813000	1.242805
1.814000	1.316565
1.815000	1.365523
1.816000	1.456354
1.817000	1.507567
1.818000	1.588735
1.819000	1.606772
1.820000	1.537844
1.821000	1.437672
1.822000	1.409650
1.823000	1.423500
1.824000	1.514653
1.825000	1.760733
1.826000	2.014544
1.827000	2.176236
1.828000	2.234535
1.829000	2.119869
1.830000	1.872178
1.831000	1.518518
1.832000	1.338145
1.833000	1.322363
1.834000	1.341688
1.835000	1.426721
1.836000	1.444759
1.837000	1.496294
1.838000	1.506923
1.839000	1.409006
1.840000	1.339112
1.841000	1.367778
1.842000	1.389036
1.843000	1.336857
1.844000	1.300138
1.845000	1.342332
1.846000	1.446047
1.847000	1.626420
1.848000	1.813879
1.849000	1.741085
1.850000	1.569409
1.851000	1.414160
1.852000	1.376797
1.853000	1.526248
1.854000	1.943039
1.855000	2.259336
1.856000	2.394616
1.857000	2.433589
1.858000	2.382698
1.859000	2.239688
1.860000	2.027750
1.861000	1.927256
1.862000	1.737865
1.863000	1.614824
1.864000	1.416414
1.865000	1.217360
1.866000	1.028613
1.867000	0.916202
1.868000	0.851139
1.869000	0.836644
1.870000	0.967737
1.871000	1.189982
1.872000	1.387748
1.873000	1.456998
1.874000	1.479223
1.875000	1.448946
1.876000	1.425755
1.877000	1.386459
1.878000	1.378729
1.879000	1.557814
1.880000	1.772973
1.881000	1.874111
1.882000	1.835459
1.883000	1.778771
1.884000	1.795842
1.885000	1.744306
1.886000	1.549761
1.887000	1.483410
1.888000	1.579716
1.889000	1.666682
1.890000	1.705655
1.891000	1.733999
1.892000	1.658629
1.893000	1.486953
1.894000	1.343621
1.895000	1.292730
1.896000	1.297561
1.897000	1.432197
1.898000	1.657663
1.899000	1.819032
1.900000	1.750426
1.901000	1.668292
1.902000	1.578106
1.903000	1.638337
1.904000	1.758801
1.905000	1.920814
1.906000	1.981690
1.907000	1.970417
1.908000	1.860583
1.909000	1.638337
1.910000	1.506279
1.911000	1.483410
1.912000	1.554271
1.913000	1.755258
1.914000	1.947870
1.915000	2.075420
1.916000	2.029038
1.917000	1.848987
1.918000	1.663461
1.919000	1.583259
1.920000	1.590989
1.921000	1.646068
1.922000	1.733033
1.923000	1.712097
1.924000	1.640914
1.925000	1.418669
1.926000	1.219937
1.927000	1.096252
1.928000	1.081436
1.929000	1.149398
1.930000	1.253434
1.931000	1.422212
1.932000	1.485342
1.933000	1.485342
1.934000	1.495005
1.935000	1.485987
1.936000	1.502736
1.937000	1.551694
1.938000	1.487275
1.939000	1.375830
1.940000	1.303037
1.941000	1.289509
1.942000	1.310445
1.943000	1.436706
1.944000	1.625131
1.945000	1.675056
1.946000	1.526571
1.947000	1.383238
1.948000	1.316243
1.949000	1.324295
1.950000	1.418025
1.951000	1.825474
1.952000	2.189119
1.953000	2.324077
1.954000	2.350489
1.955000	2.300242
1.956000	2.146281
1.957000	1.824830
1.958000	1.549761
1.959000	1.309801
1.960000	1.178386
1.961000	1.166469
1.962000	1.182896
1.963000	1.225734
1.964000	1.241195
1.965000	1.259232
1.966000	1.336535
1.967000	1.436706
1.968000	1.641880
1.969000	1.866702
1.970000	1.957855
1.971000	2.046431
1.972000	2.147247
1.973000	2.247741
1.974000	2.304107
1.975000	2.202647
1.976000	2.043855
1.977000	1.896013
1.978000	1.752681
1.979000	1.538488
1.980000	1.344909
1.981000	1.144244
1.982000	1.018950
1.983000	0.934239
1.984000	0.931662
1.985000	1.064043
1.986000	1.412227
1.987000	1.921459
1.988000	2.200715
1.989000	2.201359
1.990000	2.028072
1.991000	1.849309
1.992000	1.667970
1.993000	1.572630
1.994000	1.549439
1.995000	1.529469
1.996000	1.481155
1.997000	1.451200
1.998000	1.375508
1.999000	1.297239
2.000000	1.266640
2.001000	1.379051
2.002000	1.537522
2.003000	1.671835
2.004000	1.699535
2.005000	1.678599
2.006000	1.614180
2.007000	1.533979
2.008000	1.493395
2.009000	1.529469
2.010000	1.407073
2.011000	1.321396
2.012000	1.282101
2.013000	1.303037
2.014000	1.314954
2.015000	1.304325
2.016000	1.286288
2.017000	1.297561
2.018000	1.349419
2.019000	1.401598
2.020000	1.486309
2.021000	1.632540
2.022000	1.804860
2.023000	1.876687
2.024000	1.878942
2.025000	1.877654
2.026000	1.836426
2.027000	1.753003
2.028000	1.704367
2.029000	1.727558
2.030000	1.673446
2.031000	1.594210
2.032000	1.508533
2.033000	1.412871
2.034000	1.436384
2.035000	1.554593
2.036000	1.725303
2.037000	1.804216
2.038000	1.869279
2.039000	1.831594
2.040000	1.657663
2.041000	1.500159
2.042000	1.423500
2.043000	1.402242
2.044000	1.453777
2.045000	1.479867
2.046000	1.397089
2.047000	1.280812
2.048000	1.319142
2.049000	1.455710
2.050000	1.614502
2.051000	1.912118
2.052000	2.248063
2.053000	2.401380
2.054000	2.484158
2.055000	2.494788
2.056000	2.494143
2.057000	2.496720
2.058000	2.423927
2.059000	2.062536
2.060000	1.459897
2.061000	1.088200
2.062000	0.971924
2.063000	0.893333
2.064000	0.878195
2.065000	0.916202
2.066000	0.940037
2.067000	0.957108
2.068000	0.972246
2.069000	1.092065
2.070000	1.239262
2.071000	1.378085
2.072000	1.623521
2.073000	1.978469
2.074000	2.106019
2.075000	2.008424
2.076000	1.802606
2.077000	1.581971
2.078000	1.395478
2.079000	1.304325
2.080000	1.210274
2.081000	1.145211
2.082000	1.117189
2.083000	1.158417
2.084000	1.334602
2.085000	1.503702
2.086000	1.565544
2.087000	1.663783
2.088000	1.822898
2.089000	1.877009
2.090000	1.839969
2.091000	1.830950
2.092000	1.882807
2.093000	1.825474
2.094000	1.642202
2.095000	1.473425
2.096000	1.333958
2.097000	1.253434
2.098000	1.205120
2.099000	1.228633
2.100000	1.206409
2.101000	1.131361
2.102000	1.162604
2.103000	1.325906
2.104000	1.526248
2.105000	1.666682
2.106000	1.776194
2.107000	1.864770
2.108000	1.829017
2.109000	1.746239
2.110000	1.758801
2.111000	1.810658
2.112000	1.811624
2.113000	1.738187
2.114000	1.676344
2.115000	1.675700
2.116000	1.846410
2.117000	2.063180
2.118000	2.134685
2.119000	2.203936
2.120000	2.234535
2.121000	2.082828
2.122000	1.884096
2.123000	1.770396
2.124000	1.709842
2.125000	1.862193
2.126000	1.995218
2.127000	1.983301
2.128000	1.984267
2.129000	1.949159
2.130000	1.897623
2.131000	1.762666
2.132000	1.476002
2.133000	1.300138
2.134000	1.190304
2.135000	1.151331
2.136000	1.212851
2.137000	1.218004
2.138000	1.202866
2.139000	1.150042
2.140000	1.086267
2.141000	1.025070
2.142000	1.031834
2.143000	1.088200
2.144000	1.121054
2.145000	1.235719
2.146000	1.369388
2.147000	1.508211
2.148000	1.572952
2.149000	1.628352
2.150000	1.724337
2.151000	1.804860
2.152000	1.880552
2.153000	1.924035
2.154000	1.928545
2.155000	1.962687
2.156000	1.994252
2.157000	1.931121
2.158000	1.745917
2.159000	1.534623
2.160000	1.412871
2.161000	1.446369
2.162000	1.673124
2.163000	2.004559
2.164000	2.170438
2.165000	2.153689
2.166000	1.991997
2.167000	1.719505
2.168000	1.484698
2.169000	1.323329
2.170000	1.170978
2.171000	1.140379
2.172000	1.140701
2.173000	1.139413
2.174000	1.158739
2.175000	1.197068
2.176000	1.254401
2.177000	1.331381
2.178000	1.437028
2.179000	1.650577
2.180000	1.757190
2.181000	1.706621
2.182000	1.642847
2.183000	1.434451
2.184000	1.185473
2.185000	1.131039
2.186000	1.170656
2.187000	1.245382
2.188000	1.317531
2.189000	1.321396
2.190000	1.286932
2.191000	1.265030
2.192000	1.402886
2.193000	1.596465
2.194000	1.771040
2.195000	1.958499
2.196000	2.175269
2.197000	2.321500
2.198000	2.372713
2.199000	2.316347
2.200000	2.157876
2.201000	2.063824
2.202000	1.861871
2.203000	1.630929
2.204000	1.474391
2.205000	1.467949
2.206000	1.712419
2.207000	1.853497
2.208000	1.842545
2.209000	1.855107
2.210000	1.792621
2.211000	1.655086
2.212000	1.547829
2.213000	1.514331
2.214000	1.633828
2.215000	1.961398
2.216000	2.288969
2.217000	2.371425
2.218000	2.307972
2.219000	2.021952
2.220000	1.674734
2.221000	1.393545
2.222000	1.257300
2.223000	1.202221
2.224000	1.241839
2.225000	1.291764
2.226000	1.327194
2.227000	1.392579
2.228000	1.408362
2.229000	1.361336
2.230000	1.313988
2.231000	1.322363
2.232000	1.365201
2.233000	1.319464
2.234000	1.280490
2.235000	1.299172
2.236000	1.325261
2.237000	1.390969
2.238000	1.383883
2.239000	1.308513
2.240000	1.161315
2.241000	1.078859
2.242000	1.124597
2.243000	1.226701
2.244000	1.318820
2.245000	1.385171
2.246000	1.550083
2.247000	1.757512
2.248000	1.824508
2.249000	1.731745
2.250000	1.586802
2.251000	1.436062
2.252000	1.477612
2.253000	1.555559
2.254000	1.694382
2.255000	1.983945
2.256000	2.121157
2.257000	2.199104
2.258000	2.154333
2.259000	2.157554
2.260000	2.071555
2.261000	1.916305
2.262000	1.794231
2.263000	1.609027
2.264000	1.363913
2.265000	1.218648
2.266000	1.322685
2.267000	1.456032
2.268000	1.562323
2.269000	1.643169
2.270000	1.758801
2.271000	1.963009
2.272000	2.006492
2.273000	1.896335
2.274000	1.903421
2.275000	1.909219
2.276000	1.972027
2.277000	2.047075
2.278000	1.812590
2.279000	1.498226
2.280000	1.314954
2.281000	1.247315
2.282000	1.248281
2.283000	1.219615
2.284000	1.198678
2.285000	1.307546
2.286000	1.386782
2.287000	1.504024
2.288000	1.666682
2.289000	1.688906
2.290000	1.817422
2.291000	1.893114
2.292000	1.915661
2.293000	1.887961
2.294000	1.826118
2.295000	1.785212
2.296000	1.748494
2.297000	1.704045
2.298000	1.704367
2.299000	1.667970
2.300000	1.613858
2.301000	1.490174
2.302000	1.336857
2.303000	1.191914
2.304000	1.076605
2.305000	1.049871
2.306000	1.137803
2.307000	1.302071
2.308000	1.483410
2.309000	1.471492
2.310000	1.333958
2.311000	1.243772
2.312000	1.199645
2.313000	1.078859
2.314000	0.972568
2.315000	0.932628
2.316000	0.989961
2.317000	1.186117
2.318000	1.584870
2.319000	2.071555
2.320000	2.383343
2.321000	2.430691
2.322000	2.410077
2.323000	2.345657
2.324000	2.244198
2.325000	2.131142
2.326000	2.112783
2.327000	2.202647
2.328000	2.183644
2.329000	2.013256
2.330000	1.845122
2.331000	1.992641
2.332000	2.233891
2.333000	2.248385
2.334000	2.048686
2.335000	1.654120
2.336000	1.213173
2.337000	0.885603
2.338000	0.720368
2.339000	0.689125
2.340000	0.838899
2.341000	1.192559
2.342000	1.645745
2.343000	1.903099
2.344000	1.890215
2.345000	1.725947
2.346000	1.500481
2.347000	1.350063
2.348000	1.217038
2.349000	1.259876
2.350000	1.325584
2.351000	1.443148
2.352000	1.608383
2.353000	1.766853
2.354000	1.820965
2.355000	1.774261
2.356000	1.670547
2.357000	1.699857
2.358000	1.920492
2.359000	2.046109
2.360000	2.001982
2.361000	1.913728
2.362000	1.896013
2.363000	1.982334
2.364000	1.918560
2.365000	1.831272
2.366000	1.586158
2.367000	1.288543
2.368000	1.082724
2.369000	0.994148
2.370000	1.038597
2.371000	1.261165
2.372000	1.410939
2.373000	1.415448
2.374000	1.421890
2.375000	1.540743
2.376000	1.745917
2.377000	1.831916
2.378000	1.696636
2.379000	1.487597
2.380000	1.357471
2.381000	1.346842
2.382000	1.476002
2.383000	1.744629
2.384000	1.971061
2.385000	2.148857
2.386000	2.297021
2.387000	2.294766
2.388000	2.288969
2.389000	2.144670
2.390000	2.045143
2.391000	1.735288
2.392000	1.358437
2.393000	1.237974
2.394000	1.207375
2.395000	1.168402
2.396000	1.189338
2.397000	1.298850
2.398000	1.431231
2.399000	1.450556
2.400000	1.320108
2.401000	1.208985
2.402000	1.133293
2.403000	1.154551
2.404000	1.217038
2.405000	1.288865
2.406000	1.678277
2.407000	2.074131
2.408000	2.255471
2.409000	2.167539
2.410000	1.916627
2.411000	1.619012
2.412000	1.332348
2.413000	0.986740
2.414000	0.831491
2.415000	0.873041
2.416000	1.077893
2.417000	1.292408
2.418000	1.397089
2.419000	1.463762
2.420000	1.624165
2.421000	1.772007
2.422000	1.889893
2.423000	1.936919
2.424000	1.761700
2.425000	1.650899
2.426000	1.755580
2.427000	1.975570
2.428000	2.121801
2.429000	2.183322
2.430000	2.237756
2.431000	2.341470
2.432000	2.384631
2.433000	2.392039
2.434000	2.380122
2.435000	2.163352
2.436000	1.726591
2.437000	1.306580
2.438000	1.039242
2.439000	0.984486
2.440000	1.131039
2.441000	1.459253
2.442000	1.772329
2.443000	1.890215
2.444000	1.918560
2.445000	1.952380
2.446000	2.003915
2.447000	1.781347
2.448000	1.423822
2.449000	1.182574
2.450000	1.055024
2.451000	1.034088
2.452000	1.043429
2.453000	1.059856
2.454000	1.100118
2.455000	1.136836
2.456000	1.104305
2.457000	1.089488
2.458000	1.208341
2.459000	1.350707
2.460000	1.411583
2.461000	1.407396
2.462000	1.455066
2.463000	1.431875
2.464000	1.246348
2.465000	1.055346
2.466000	0.958074
2.467000	0.975467
2.468000	1.085945
2.469000	1.358759
2.470000	1.698891
2.471000	2.030971
2.472000	2.355965
2.473000	2.428436
2.474000	2.438743
2.475000	2.430046
2.476000	2.424571
2.477000	2.480615
2.478000	2.475140
2.479000	2.316025
2.480000	1.831916
2.481000	1.318175
2.482000	1.151975
2.483000	1.165181
2.484000	1.601296
2.485000	2.326332
2.486000	2.495432
2.487000	2.494143
2.488000	2.452915
2.489000	2.113427
2.490000	1.465373
2.491000	1.005100
2.492000	0.820218
2.493000	0.753866
2.494000	0.755477
2.495000	0.825371
2.496000	0.855004
2.497000	0.874007
2.498000	0.903962
2.499000	0.986418
2.500000	1.168724
2.501000	1.477612
2.502000	1.905998
2.503000	2.390751
2.504000	2.485769
2.505000	2.466443
2.506000	2.374324
2.507000	2.103442
2.508000	1.725625
2.509000	1.497260
2.510000	1.426077
2.511000	1.288543
2.512000	1.200611
2.513000	1.205764
2.514000	1.313344
2.515000	1.298850
2.516000	1.304003
2.517000	1.522705
2.518000	1.737865
2.519000	1.802606
2.520000	1.704689
2.521000	1.510144
2.522000	1.379051
2.523000	1.417058
2.524000	1.842223
2.525000	2.286070
2.526000	2.328586
2.527000	2.184610
2.528000	1.954312
2.529000	1.622877
2.530000	1.201899
2.531000	0.927153
2.532000	0.783499
2.533000	0.745492
2.534000	0.814420
2.535000	0.972890
2.536000	1.203510
2.537000	1.474069
2.538000	1.743662
2.539000	1.871534
2.540000	1.925324
2.541000	2.133719
2.542000	2.353710
2.543000	2.394294
2.544000	2.354998
2.545000	2.134041
2.546000	1.942073
2.547000	1.773939
2.548000	1.498548
2.549000	1.469238
2.550000	1.583259
2.551000	1.738509
2.552000	1.836103
2.553000	1.866380
2.554000	1.840935
2.555000	1.732711
2.556000	1.582937
2.557000	1.426721
2.558000	1.332992
2.559000	1.263097
2.560000	1.253757
2.561000	1.241839
2.562000	1.211562
2.563000	1.258266
2.564000	1.432841
2.565000	1.743662
2.566000	2.012611
2.567000	2.134685
2.568000	1.977181
2.569000	1.743984
2.570000	1.429620
2.571000	1.122342
2.572000	0.960006
2.573000	0.906217
2.574000	0.975789
2.575000	1.090777
2.576000	1.188693
2.577000	1.242161
2.578000	1.328805
2.579000	1.636083
2.580000	2.260302
2.581000	2.492855
2.582000	2.774044
2.583000	2.771467
2.584000	2.770179
2.585000	2.489312
2.586000	2.242587
2.587000	1.478256
2.588000	1.039242
2.589000	0.851783
2.590000	0.811843
2.591000	0.860479
2.592000	0.960651
2.593000	1.235075
2.594000	1.461507
2.595000	1.293374
2.596000	1.125241
2.597000	1.079826
2.598000	1.093031
2.599000	1.244738
2.600000	1.725947
2.601000	2.184288
2.602000	2.202325
2.603000	2.027106
2.604000	1.802283
2.605000	1.705011
2.606000	1.772651
2.607000	1.780059
2.608000	1.774905
2.609000	1.925324
2.610000	1.967196
2.611000	1.900200
2.612000	1.705011
2.613000	1.511432
2.614000	1.262131
2.615000	1.141346
2.616000	1.102694
2.617000	1.087234
2.618000	1.146499
2.619000	1.247637
2.620000	1.411583
2.621000	1.594532
2.622000	1.693738
2.623000	1.758156
2.624000	1.944327
2.625000	2.091202
2.626000	2.066723
2.627000	1.810658
2.628000	1.487919
2.629000	1.351995
2.630000	1.310445
2.631000	1.334602
2.632000	1.393868
2.633000	1.307546
2.634000	1.341688
2.635000	1.339112
2.636000	1.297239
2.637000	1.390969
2.638000	1.513687
2.639000	1.564900
2.640000	1.814201
2.641000	1.915983
2.642000	1.770396
2.643000	1.712419
2.644000	1.736576
2.645000	1.839002
2.646000	1.982012
2.647000	2.065113
2.648000	2.247419
2.649000	2.395904
2.650000	2.367560
2.651000	2.316347
2.652000	1.887316
2.653000	1.504990
2.654000	1.303681
2.655000	1.281779
2.656000	1.290475
2.657000	1.145211
2.658000	0.888179
2.659000	0.764495
2.660000	0.812809
2.661000	0.997692
2.662000	1.358759
2.663000	1.793909
2.664000	2.071877
2.665000	2.343081
2.666000	2.387530
2.667000	2.369815
2.668000	2.267066
2.669000	2.193629
2.670000	2.233246
2.671000	2.122768
2.672000	1.927256
2.673000	1.703078
2.674000	1.477612
2.675000	1.276947
2.676000	1.147465
2.677000	1.076927
2.678000	1.008965
2.679000	0.959040
2.680000	1.001557
2.681000	1.060178
2.682000	1.154551
2.683000	1.316565
2.684000	1.415126
2.685000	1.463440
2.686000	1.447657
2.687000	1.542031
2.688000	1.798740
2.689000	2.267388
2.690000	2.396871
2.691000	2.384953
2.692000	2.166251
2.693000	1.829017
2.694000	1.527859
2.695000	1.279202
2.696000	1.130716
2.697000	1.053092
2.698000	1.107848
2.699000	1.360048
2.700000	1.862837
2.701000	2.132753
2.702000	2.256115
2.703000	2.343403
2.704000	2.395260
2.705000	2.397837
2.706000	2.201359
2.707000	1.917271
2.708000	1.786823
2.709000	1.447657
2.710000	1.187405
2.711000	1.080470
2.712000	1.017017
2.713000	0.964838
2.714000	0.978688
2.715000	1.004456
2.716000	1.065653
2.717000	1.074672
2.718000	1.055346
2.719000	1.139091
2.720000	1.289831
2.721000	1.506923
2.722000	1.869601
2.723000	1.985555
2.724000	1.947226
2.725000	1.788433
2.726000	1.333636
2.727000	1.034410
2.728000	1.002523
2.729000	1.166469
2.730000	1.471170
2.731000	1.770718
2.732000	1.935953
2.733000	1.856395
2.734000	1.687940
2.735000	1.663783
2.736000	1.683753
2.737000	1.681176
2.738000	1.838036
2.739000	1.888283
2.740000	1.875077
2.741000	1.786501
2.742000	1.680854
2.743000	1.590345
2.744000	1.463762
2.745000	1.329449
2.746000	1.317853
2.747000	1.520451
2.748000	2.081540
2.749000	2.418129
2.750000	2.473851
2.751000	2.431013
2.752000	2.185898
2.753000	1.730134
2.754000	1.507245
2.755000	1.353606
2.756000	1.282423
2.757000	1.223158
2.758000	1.129750
2.759000	1.095608
2.760000	1.131039
2.761000	1.288865
2.762000	1.724659
2.763000	1.980402
2.764000	1.878942
2.765000	1.814523
2.766000	1.742374
2.767000	1.577784
2.768000	1.527215
2.769000	1.330737
2.770000	1.147143
2.771000	1.021849
2.772000	1.024103
2.773000	1.093676
2.774000	1.153263
2.775000	1.157450
2.776000	1.212528
2.777000	1.391613
2.778000	1.735288
2.779000	2.147247
2.780000	2.379800
2.781000	2.431013
2.782000	2.444863
2.783000	2.437455
2.784000	2.356931
2.785000	2.141449
2.786000	1.863804
2.787000	1.595821
2.788000	1.316243
2.789000	1.125241
2.790000	0.994471
2.791000	0.855004
2.792000	0.748713
2.793000	0.697178
2.794000	0.723267
2.795000	0.880127
2.796000	1.273404
2.797000	1.866380
2.798000	2.221329
2.799000	2.292834
2.800000	2.234213
2.801000	2.111172
2.802000	2.078641
2.803000	2.059637
2.804000	1.963009
2.805000	1.884096
2.806000	1.867024
2.807000	1.888927
2.808000	1.843189
2.809000	1.690839
2.810000	1.499515
2.811000	1.415448
2.812000	1.351351
2.813000	1.496938
2.814000	1.553304
2.815000	1.645101
2.816000	1.799385
2.817000	1.902455
2.818000	1.958177
2.819000	1.990387
2.820000	1.788755
2.821000	1.928545
2.822000	2.329231
2.823000	2.407822
2.824000	2.393650
2.825000	2.229059
2.826000	1.847699
2.827000	1.363591
2.828000	1.097219
2.829000	1.088522
2.830000	1.175810
2.831000	1.303681
2.832000	1.405463
2.833000	1.442504
2.834000	1.378085
2.835000	1.302071
2.836000	1.174521
2.837000	1.142956
2.838000	1.233465
2.839000	1.280490
2.840000	1.214783
2.841000	1.079503
2.842000	0.978044
2.843000	0.927153
2.844000	0.931662
2.845000	1.085301
2.846000	1.270183
2.847000	1.487275
2.848000	1.534301
2.849000	1.495972
2.850000	1.673446
2.851000	2.029360
2.852000	2.313448
2.853000	2.386564
2.854000	2.385597
2.855000	2.352421
2.856000	2.227771
2.857000	2.132753
2.858000	2.124056
2.859000	1.898912
2.860000	1.563289
2.861000	1.305292
2.862000	1.296595
2.863000	1.297239
2.864000	1.346198
2.865000	1.467627
2.866000	1.525604
2.867000	1.692449
2.868000	1.670547
2.869000	1.502736
2.870000	1.388392
2.871000	1.254079
2.872000	1.132971
2.873000	1.096897
2.874000	1.216394
2.875000	1.423178
2.876000	1.608705
2.877000	1.951091
2.878000	2.342759
2.879000	2.447762
2.880000	2.435844
2.881000	2.241943
2.882000	1.790044
2.883000	1.318820
2.884000	0.991572
2.885000	0.838899
2.886000	0.851139
2.887000	0.922321
2.888000	0.926831
2.889000	0.954531
2.890000	1.023137
2.891000	1.186761
2.892000	1.478901
2.893000	1.959144
2.894000	2.377545
2.895000	2.452271
2.896000	2.425215
2.897000	2.334384
2.898000	2.205224
2.899000	2.041922
2.900000	1.873788
2.901000	1.636083
2.902000	1.418669
2.903000	1.246993
2.904000	1.207375
2.905000	1.237652
2.906000	1.381950
2.907000	1.479545
2.908000	1.624809
2.909000	1.766531
2.910000	1.781669
2.911000	1.840613
2.912000	2.006814
2.913000	2.017121
2.914000	1.707588
2.915000	1.301104
2.916000	1.133937
2.917000	1.151653
2.918000	1.226056
2.919000	1.398699
2.920000	1.495649
2.921000	1.418669
2.922000	1.376797
2.923000	1.558780
2.924000	2.040634
2.925000	2.300242
2.926000	2.220040
2.927000	2.166251
2.928000	1.825152
2.929000	1.391291
2.930000	1.188049
2.931000	1.193847
2.932000	1.481477
2.933000	1.703723
2.934000	1.605162
2.935000	1.469560
2.936000	1.344587
2.937000	1.290475
2.938000	1.300138
2.939000	1.342655
2.940000	1.393545
2.941000	1.434129
2.942000	1.398699
2.943000	1.433807
2.944000	1.508855
2.945000	1.629963
2.946000	1.750104
2.947000	1.811624
2.948000	1.739475
2.949000	1.660240
2.950000	1.541065
2.951000	1.429298
2.952000	1.330093
2.953000	1.264708
2.954000	1.305936
2.955000	1.623843
2.956000	1.919526
2.957000	1.957211
2.958000	1.784568
2.959000	1.557169
2.960000	1.368744
2.961000	1.166147
2.962000	1.117511
2.963000	1.186439
2.964000	1.216071
2.965000	1.285322
2.966000	1.412871
2.967000	1.500481
2.968000	1.616757
2.969000	1.697281
2.970000	2.039345
2.971000	2.381088
2.972000	2.444863
2.973000	2.443574
2.974000	2.322145
2.975000	1.901489
2.976000	1.419635
2.977000	1.173233
2.978000	1.163248
2.979000	1.422534
2.980000	1.699535
2.981000	1.882163
2.982000	1.940462
2.983000	1.854463
2.984000	1.949803
2.985000	1.989743
2.986000	2.020664
2.987000	1.864126
2.988000	1.650899
2.989000	1.438317
2.990000	1.376152
2.991000	1.350385
2.992000	1.270505
2.993000	1.176132
2.994000	1.140057
2.995000	1.187083
2.996000	1.280490
2.997000	1.273082
2.998000	1.308835
2.999000	1.283711
3.000000	1.192236
3.001000	1.076283
3.002000	1.009931
3.003000	1.015085
3.004000	1.089810
3.005000	1.296917
3.006000	1.523994
3.007000	1.635116
3.008000	1.614824
3.009000	1.573274
3.010000	1.541065
3.011000	1.495005
3.012000	1.618367
3.013000	1.749138
3.014000	1.769430
3.015000	1.822253
3.016000	1.915983
3.017000	2.187831
3.018000	2.428114
3.019000	2.472563
3.020000	2.495432
3.021000	2.461934
3.022000	2.412653
3.023000	2.200071
3.024000	1.785212
3.025000	1.412227
3.026000	1.152619
3.027000	0.999946
3.028000	0.930052
3.029000	0.928763
3.030000	0.998658
3.031000	1.317531
3.032000	1.884740
3.033000	2.244520
3.034000	2.335028
3.035000	2.271576
3.036000	2.096034
3.037000	1.785212
3.038000	1.391935
3.039000	1.109780
3.040000	0.968381
3.041000	0.940359
3.042000	1.074028
3.043000	1.259876
3.044000	1.313666
3.045000	1.314632
3.046000	1.354894
3.047000	1.439927
3.048000	1.595499
3.049000	1.785857
3.050000	1.909541
3.051000	1.996829
3.052000	2.115360
3.053000	2.123090
3.054000	2.074776
3.055000	1.977503
3.056000	1.781025
3.057000	1.600008
3.058000	1.554593
3.059000	1.619012
3.060000	1.696959
3.061000	1.645423
3.062000	1.525282
3.063000	1.409006
3.064000	1.277592
3.065000	1.181929
3.066000	1.071773
3.067000	1.094642
3.068000	1.212206
3.069000	1.307546
3.070000	1.300460
3.071000	1.234753
3.072000	1.153263
3.073000	1.058567
3.074000	1.110102
3.075000	1.313022
3.076000	1.685685
3.077000	1.844478
3.078000	1.591956
3.079000	1.246670
3.080000	1.086912
3.081000	1.107526
3.082000	1.262131
3.083000	1.705333
3.084000	2.275763
3.085000	2.415230
3.086000	2.343725
3.087000	2.369493
3.088000	2.418773
3.089000	2.392683
3.090000	2.243231
3.091000	1.955923
3.092000	1.741408
3.093000	1.619656
3.094000	1.597753
3.095000	1.562645
3.096000	1.563289
3.097000	1.628352
3.098000	1.790366
3.099000	1.853174
3.100000	1.884096
3.101000	1.886350
3.102000	1.922747
3.103000	1.919204
3.104000	1.777482
3.105000	1.621588
3.106000	1.501769
3.107000	1.424467
3.108000	1.349741
3.109000	1.232176
3.110000	1.119443
3.111000	1.059856
3.112000	1.095930
3.113000	1.197390
3.114000	1.320430
3.115000	1.433163
3.116000	1.399021
3.117000	1.241839
3.118000	1.086267
3.119000	1.002201
3.120000	1.094320
3.121000	1.437350
3.122000	1.741408
3.123000	1.961076
3.124000	2.164318
3.125000	2.260624
3.126000	2.316669
3.127000	2.376579
3.128000	2.367882
3.129000	2.153045
3.130000	1.913728
3.131000	1.911474
3.132000	1.991031
3.133000	1.968162
3.134000	1.900200
3.135000	1.720471
3.136000	1.535911
3.137000	1.681498
3.138000	1.965585
3.139000	1.679888
3.140000	1.196102
3.141000	0.944868
3.142000	0.851461
3.143000	0.853071
3.144000	0.901385
3.145000	1.061788
3.146000	1.368744
3.147000	1.458931
3.148000	1.333314
3.149000	1.238618
3.150000	1.328160
3.151000	1.558780
3.152000	1.653154
3.153000	1.602263
3.154000	1.496938
3.155000	1.438961
3.156000	1.466017
3.157000	1.393868
3.158000	1.308513
3.159000	1.309479
3.160000	1.372931
3.161000	1.410939
3.162000	1.487597
3.163000	1.523672
3.164000	1.454099
3.165000	1.394834
3.166000	1.394190
3.167000	1.471492
3.168000	1.668614
3.169000	1.828695
3.170000	1.954634
3.171000	2.027428
3.172000	2.045143
3.173000	2.012611
3.174000	2.068656
3.175000	2.019697
3.176000	1.933376
3.177000	1.858328
3.178000	1.725625
3.179000	1.523672
3.180000	1.341366
3.181000	1.186761
3.182000	1.238940
3.183000	1.558458
3.184000	2.036768
3.185000	2.336639
3.186000	2.415552
3.187000	2.362084
3.188000	2.202003
3.189000	2.007780
3.190000	1.931121
3.191000	1.930799
3.192000	1.858650
3.193000	1.767819
3.194000	1.641236
3.195000	1.541709
3.196000	1.402886
3.197000	1.203188
3.198000	1.025714
3.199000	0.891078
3.200000	0.862734
3.201000	0.903318
3.202000	0.966126
3.203000	1.041818
3.204000	1.156484
3.205000	1.475680
3.206000	1.958499
3.207000	2.287680
3.208000	2.290257
3.209000	2.052873
3.210000	1.786823
3.211000	1.553626
3.212000	1.296917
3.213000	1.116866
3.214000	1.000590
3.215000	1.003489
3.216000	1.157128
3.217000	1.495649
3.218000	1.843512
3.219000	1.848665
3.220000	1.547829
3.221000	1.120409
3.222000	0.948733
3.223000	0.977077
3.224000	1.151331
3.225000	1.484698
3.226000	1.924035
3.227000	2.241943
3.228000	2.238078
3.229000	2.088948
3.230000	1.978147
3.231000	2.014866
3.232000	2.158520
3.233000	2.168505
3.234000	2.172048
3.235000	2.240977
3.236000	2.268677
3.237000	2.159809
3.238000	1.984267
3.239000	1.815811
3.240000	1.658951
3.241000	1.415126
3.242000	1.274693
3.243000	1.190948
3.244000	1.236686
3.245000	1.361658
3.246000	1.417703
3.247000	1.477934
3.248000	1.624487
3.249000	1.632218
3.250000	1.526571
3.251000	1.368100
3.252000	1.301104
3.253000	1.333636
3.254000	1.368744
3.255000	1.390969
3.256000	1.446047
3.257000	1.528825
3.258000	1.750104
3.259000	1.923391
3.260000	2.142416
3.261000	2.098289
3.262000	1.721116
3.263000	1.407718
3.264000	1.300782
3.265000	1.229277
3.266000	1.372287
3.267000	1.539776
3.268000	1.571986
3.269000	1.453133
3.270000	1.314954
3.271000	1.202866
3.272000	1.127818
3.273000	1.121054
3.274000	1.149398
3.275000	1.220581
3.276000	1.276625
3.277000	1.349096
3.278000	1.498226
3.279000	1.630285
3.280000	1.699213
3.281000	1.748494
3.282000	1.811946
3.283000	1.790044
3.284000	1.783280
3.285000	1.797130
3.286000	1.728202
3.287000	1.671835
3.288000	1.653476
3.289000	1.811302
3.290000	1.917915
3.291000	1.714352
3.292000	1.496616
3.293000	1.358437
3.294000	1.294985
3.295000	1.407073
3.296000	1.664105
3.297000	1.904387
3.298000	2.030327
3.299000	2.030004
3.300000	1.994252
3.301000	1.933054
3.302000	1.836426
3.303000	1.728202
3.304000	1.642202
3.305000	1.683753
3.306000	1.719505
3.307000	1.533657
3.308000	1.401598
3.309000	1.319786
3.310000	1.320108
3.311000	1.311411
3.312000	1.232498
3.313000	1.201899
3.314000	1.193847
3.315000	1.146499
3.316000	1.111069
3.317000	1.060178
3.318000	1.055668
3.319000	1.092387
3.320000	1.211240
3.321000	1.387104
3.322000	1.610959
3.323000	1.842223
3.324000	1.962042
3.325000	1.921459
3.326000	1.991997
3.327000	2.012289
3.328000	1.986200
3.329000	2.056738
3.330000	2.195883
3.331000	2.288647
3.332000	2.387852
3.333000	2.422316
3.334000	2.378511
3.335000	2.321178
3.336000	2.311193
3.337000	2.307972
3.338000	2.297343
3.339000	1.975893
3.340000	1.480189
3.341000	1.055668
3.342000	0.881738
3.343000	0.873685
3.344000	0.892367
3.345000	0.831169
3.346000	0.875940
3.347000	1.046006
3.348000	1.210596
3.349000	1.420279
3.350000	1.473103
3.351000	1.372609
3.352000	1.333958
3.353000	1.303359
3.354000	1.353606
3.355000	1.449912
3.356000	1.550728
3.357000	1.635116
3.358000	1.700179
3.359000	1.942073
3.360000	2.188153
3.361000	2.305074
3.362000	2.147247
3.363000	1.866380
3.364000	1.573596
3.365000	1.311411
3.366000	1.325261
3.367000	1.384205
3.368000	1.503702
3.369000	1.712419
3.370000	1.841579
3.371000	1.762022
3.372000	1.569731
3.373000	1.446047
3.374000	1.376474
3.375000	1.418669
3.376000	1.477290
3.377000	1.401276
3.378000	1.252468
3.379000	1.227023
3.380000	1.194491
3.381000	1.093031
3.382000	1.052448
3.383000	1.158417
3.384000	1.411583
3.385000	1.695026
3.386000	2.101187
3.387000	2.365949
3.388000	2.426503
3.389000	2.451949
3.390000	2.409754
3.391000	2.145636
3.392000	1.533657
3.393000	0.959684
3.394000	0.734863
3.395000	0.696855
3.396000	0.776091
3.397000	0.953243
3.398000	1.237974
3.399000	1.688906
3.400000	1.946260
3.401000	2.003915
3.402000	1.823542
3.403000	1.445725
3.404000	1.160671
3.405000	1.113968
3.406000	1.297883
3.407000	1.844156
3.408000	2.315703
3.409000	2.418129
3.410000	2.430691
3.411000	2.360796
3.412000	2.250962
3.413000	2.221973
3.414000	2.140161
3.415000	1.981046
3.416000	1.906964
3.417000	1.843834
3.418000	1.770074
3.419000	1.655730
3.420000	1.562001
3.421000	1.552982
3.422000	1.644135
3.423000	1.661850
3.424000	1.822898
3.425000	2.126955
3.426000	2.159487
3.427000	1.953668
3.428000	1.669580
3.429000	1.217038
3.430000	0.984486
3.431000	0.832457
3.432000	0.781566
3.433000	0.845985
3.434000	1.019594
3.435000	1.319142
3.436000	1.646068
3.437000	1.777804
3.438000	1.839002
3.439000	1.823542
3.440000	1.801639
3.441000	1.793265
3.442000	1.664105
3.443000	1.455066
3.444000	1.191270
3.445000	0.969025
3.446000	0.895910
3.447000	1.031189
3.448000	1.395478
3.449000	1.966552
3.450000	2.273186
3.451000	2.299920
3.452000	2.225838
3.453000	1.953024
3.454000	1.594210
3.455000	1.373254
3.456000	1.006388
3.457000	0.746136
3.458000	0.692024
3.459000	0.704264
3.460000	0.763207
3.461000	0.966448
3.462000	1.455066
3.463000	2.186865
3.464000	2.424893
3.465000	2.420061
3.466000	2.350167
3.467000	2.259658
3.468000	2.277695
3.469000	2.181711
3.470000	1.978791
3.471000	1.775228
3.472000	1.509177
3.473000	1.320752
3.474000	1.170978
3.475000	1.091099
3.476000	1.069841
3.477000	1.120732
3.478000	1.370677
3.479000	1.730456
3.480000	1.937563
3.481000	2.028716
3.482000	2.050941
3.483000	2.105375
3.484000	2.099255
3.485000	2.013900
3.486000	1.884740
3.487000	1.731423
3.488000	1.511432
3.489000	1.388392
3.490000	1.324617
3.491000	1.352639
3.492000	1.467305
3.493000	1.490496
3.494000	1.494683
3.495000	1.547507
3.496000	1.694060
3.497000	1.733033
3.498000	1.562967
3.499000	1.403530
3.500000	1.404175
3.501000	1.504668
3.502000	1.698569
3.503000	1.863804
3.504000	2.006169
3.505000	2.157876
3.506000	2.171082
3.507000	2.146281
3.508000	2.044821
3.509000	1.911796
3.510000	1.736576
3.511000	1.568765
3.512000	1.506279
3.513000	1.582937
3.514000	1.663783
3.515000	1.445403
3.516000	1.132327
3.517000	0.929085
3.518000	0.783177
3.519000	0.703942
3.520000	0.677208
3.521000	0.785431
3.522000	1.084979
3.523000	1.517552
3.524000	1.995218
3.525000	2.313126
3.526000	2.363051
3.527000	2.263201
3.528000	2.049330
3.529000	1.778448
3.530000	1.664749
3.531000	1.777160
3.532000	1.981046
3.533000	2.010679
3.534000	1.882807
3.535000	1.514331
3.536000	1.178709
3.537000	0.919745
3.538000	0.816997
3.539000	0.800248
3.540000	0.887857
3.541000	1.123952
3.542000	1.416736
3.543000	1.704689
3.544000	1.872822
3.545000	1.889249
3.546000	1.874111
3.547000	1.858972
3.548000	1.818388
3.549000	1.869279
3.550000	1.752037
3.551000	1.442182
3.552000	1.218648
3.553000	1.095286
3.554000	1.148754
3.555000	1.315277
3.556000	1.577784
3.557000	2.061892
3.558000	2.341792
3.559000	2.348878
3.560000	2.347268
3.561000	2.425215
3.562000	2.477716
3.563000	2.489312
3.564000	2.498008
3.565000	2.455492
3.566000	2.343081
3.567000	2.246130
3.568000	2.250962
3.569000	2.277051
3.570000	2.284782
3.571000	2.102476
3.572000	1.896013
3.573000	1.622555
3.574000	1.268251
3.575000	1.031834
3.576000	0.899131
3.577000	0.804757
3.578000	0.825371
3.579000	1.000268
3.580000	1.290153
3.581000	1.464084
3.582000	1.297239
3.583000	1.167435
3.584000	1.076605
3.585000	1.049871
3.586000	1.033766
3.587000	1.038597
3.588000	1.055991
3.589000	1.011219
3.590000	0.997369
3.591000	0.964194
3.592000	0.898486
3.593000	0.875940
3.594000	0.906217
3.595000	1.032478
3.596000	1.296273
3.597000	1.686007
3.598000	1.923391
3.599000	1.990709
3.600000	2.099577
3.601000	2.195561
3.602000	2.287680
3.603000	2.223261
3.604000	1.908575
3.605000	1.615147
3.606000	1.458286
3.607000	1.578428
3.608000	1.707910
3.609000	1.858650
3.610000	1.984589
3.611000	2.016154
3.612000	1.920814
3.613000	1.774261
3.614000	1.618045
3.615000	1.484698
3.616000	1.558780
3.617000	1.794553
3.618000	1.944005
3.619000	1.980402
3.620000	1.928867
3.621000	1.798418
3.622000	1.652832
3.623000	1.575529
3.624000	1.554915
3.625000	1.500159
3.626000	1.361336
3.627000	1.282423
3.628000	1.231854
3.629000	1.265352
3.630000	1.361658
3.631000	1.712741
3.632000	2.277695
3.633000	2.380766
3.634000	2.154011
3.635000	1.753969
3.636000	1.438317
3.637000	1.214783
3.638000	1.202544
3.639000	1.274693
3.640000	1.517230
3.641000	1.762988
3.642000	1.954956
3.643000	2.042566
3.644000	2.027428
3.645000	1.948514
3.646000	1.699535
3.647000	1.309801
3.648000	1.036343
3.649000	0.937782
3.650000	1.041818
3.651000	1.278880
3.652000	1.692771
3.653000	1.847699
3.654000	1.810658
3.655000	1.640270
3.656000	1.551050
3.657000	1.597109
3.658000	1.621266
3.659000	1.554593
3.660000	1.444436
3.661000	1.410616
3.662000	1.381306
3.663000	1.401598
3.664000	1.338145
3.665000	1.240551
3.666000	1.255045
3.667000	1.326550
3.668000	1.441538
3.669000	1.725625
3.670000	1.981690
3.671000	2.033870
3.672000	1.988776
3.673000	1.853819
3.674000	1.714352
3.675000	1.699535
3.676000	1.686329
3.677000	1.556847
3.678000	1.452489
3.679000	1.327194
3.680000	1.275337
3.681000	1.311089
3.682000	1.300138
3.683000	1.290797
3.684000	1.312056
3.685000	1.361658
3.686000	1.499515
3.687000	1.723370
3.688000	1.868635
3.689000	2.079285
3.690000	2.103764
3.691000	1.850920
3.692000	1.610637
3.693000	1.440571
3.694000	1.186761
3.695000	1.150364
3.696000	1.148754
3.697000	1.142634
3.698000	1.190948
3.699000	1.296595
3.700000	1.500159
3.701000	1.915661
3.702000	2.390751
3.703000	2.480615
3.704000	2.460001
3.705000	2.410077
3.706000	2.369170
3.707000	2.169149
3.708000	1.740763
3.709000	1.624809
3.710000	1.614824
3.711000	1.553949
3.712000	1.623521
3.713000	1.644779
3.714000	1.545896
3.715000	1.414160
3.716000	1.274371
3.717000	1.272438
3.718000	1.427043
3.719000	1.638659
3.720000	1.788433
3.721000	1.766531
3.722000	1.567799
3.723000	1.320752
3.724000	1.167435
3.725000	1.285000
3.726000	1.373576
3.727000	1.419635
3.728000	1.517552
3.729000	1.447657
3.730000	1.310123
3.731000	1.265352
3.732000	1.332992
3.733000	1.482444
3.734000	1.507567
3.735000	1.437672
3.736000	1.301104
3.737000	1.024103
3.738000	0.892689
3.739000	0.912014
3.740000	1.055668
3.741000	1.340722
3.742000	1.562001
3.743000	1.533012
3.744000	1.386137
3.745000	1.358759
3.746000	1.388070
3.747000	1.410294
3.748000	1.579716
3.749000	1.949159
3.750000	2.165928
3.751000	2.069300
3.752000	1.866058
3.753000	1.732067
3.754000	1.671191
3.755000	1.665071
3.756000	1.654764
3.757000	1.609349
3.758000	1.689550
3.759000	1.830628
3.760000	2.026783
3.761000	1.925968
3.762000	1.593566
3.763000	1.350063
3.764000	1.302071
3.765000	1.534945
3.766000	1.725303
3.767000	1.933698
3.768000	2.073809
3.769000	1.902133
3.770000	1.632540
3.771000	1.442826
3.772000	1.321718
3.773000	1.274048
3.774000	1.269861
3.775000	1.308190
3.776000	1.455710
3.777000	1.799707
3.778000	2.209411
3.779000	2.378511
3.780000	2.409110
3.781000	2.436810
3.782000	2.441964
3.783000	2.391717
3.784000	2.086371
3.785000	1.614180
3.786000	1.313022
3.787000	1.156484
3.788000	1.148110
3.789000	1.201577
3.790000	1.189982
3.791000	1.164858
3.792000	1.238618
3.793000	1.361658
3.794000	1.587768
3.795000	1.724337
3.796000	1.733999
3.797000	1.642847
3.798000	1.461830
3.799000	1.294663
3.800000	1.090133
3.801000	0.923288
3.802000	0.862090
3.803000	1.017661
3.804000	1.574885
3.805000	2.255793
3.806000	2.453881
3.807000	2.507349
3.808000	2.480937
3.809000	2.133075
3.810000	1.484698
3.811000	1.159705
3.812000	1.033444
3.813000	0.992860
3.814000	1.046972
3.815000	1.161960
3.816000	1.187727
3.817000	1.237330
3.818000	1.353284
3.819000	1.438961
3.820000	1.486309
3.821000	1.441538
3.822000	1.298850
3.823000	1.106237
3.824000	0.970636
3.825000	0.916202
3.826000	0.982231
3.827000	1.173233
3.828000	1.532690
3.829000	1.826118
3.830000	2.046753
3.831000	2.028716
3.832000	1.895369
3.833000	1.737542
3.834000	1.705011
3.835000	1.770396
3.836000	1.868957
3.837000	2.059315
3.838000	2.175269
3.839000	2.176880
3.840000	2.043855
3.841000	1.816134
3.842000	1.553949
3.843000	1.409328
3.844000	1.328805
3.845000	1.349096
3.846000	1.443470
3.847000	1.569409
3.848000	1.675056
3.849000	1.858006
3.850000	1.956567
3.851000	1.999083
3.852000	2.038379
3.853000	1.981690
3.854000	1.744951
3.855000	1.460863
3.856000	1.313988
3.857000	1.176132
3.858000	1.233787
3.859000	1.502413
3.860000	1.870568
3.861000	2.207479
3.862000	2.308294
3.863000	2.379800
3.864000	2.380766
3.865000	2.364983
3.866000	2.307650
3.867000	2.163030
3.868000	2.083794
3.869000	1.907931
3.870000	1.621266
3.871000	1.380984
3.872000	1.207053
3.873000	1.036665
3.874000	0.891400
3.875000	0.858547
3.876000	0.882060
3.877000	0.954531
3.878000	1.015085
3.879000	1.057279
3.880000	1.090777
3.881000	1.084979
3.882000	1.098185
3.883000	1.209307
3.884000	1.427365
3.885000	1.765565
3.886000	2.077030
3.887000	2.278984
3.888000	2.269965
3.889000	2.161097
3.890000	1.895691
3.891000	1.483732
3.892000	1.319786
3.893000	1.300460
3.894000	1.350385
3.895000	1.367456
3.896000	1.382594
3.897000	1.443470
3.898000	1.470526
3.899000	1.379373
3.900000	1.309479
3.901000	1.314632
3.902000	1.349741
3.903000	1.353928
3.904000	1.334602
3.905000	1.300460
3.906000	1.340722
3.907000	1.527215
3.908000	1.849309
3.909000	2.182677
3.910000	2.362406
3.911000	2.306684
3.912000	2.121157
3.913000	1.930155
3.914000	1.695992
3.915000	1.424467
3.916000	1.292730
3.917000	1.229599
3.918000	1.234431
3.919000	1.277914
3.920000	1.386137
3.921000	1.505956
3.922000	1.593244
3.923000	1.640914
3.924000	1.634150
3.925000	1.607738
3.926000	1.552982
3.927000	1.445081
3.928000	1.373254
3.929000	1.444436
3.930000	1.617401
3.931000	1.833205
3.932000	1.976537
3.933000	1.956889
3.934000	2.022918
3.935000	2.138228
3.936000	2.108918
3.937000	1.905354
3.938000	1.700502
3.939000	1.581327
3.940000	1.511754
3.941000	1.515619
3.942000	1.630285
3.943000	1.895369
3.944000	2.307328
3.945000	2.426825
3.946000	2.448406
3.947000	2.417485
3.948000	2.331163
3.949000	2.090880
3.950000	1.849953
3.951000	1.638659
3.952000	1.397411
3.953000	1.169046
3.954000	1.033444
3.955000	0.973212
3.956000	0.951310
3.957000	0.890756
3.958000	0.886569
3.959000	0.993826
3.960000	1.101406
3.961000	1.159061
3.962000	1.237652
3.963000	1.271794
3.964000	1.312056
3.965000	1.401276
3.966000	1.625776
3.967000	1.717895
3.968000	1.738831
3.969000	1.673446
3.970000	1.589379
3.971000	1.552016
3.972000	1.459575
3.973000	1.293374
3.974000	1.285644
3.975000	1.327516
3.976000	1.378085
3.977000	1.368100
3.978000	1.377441
3.979000	1.367134
3.980000	1.360048
3.981000	1.338789
3.982000	1.320752
3.983000	1.317853
3.984000	1.320108
3.985000	1.350707
3.986000	1.361336
3.987000	1.370677
3.988000	1.458609
3.989000	1.568443
3.990000	1.736254
3.991000	1.933054
3.992000	2.030004
3.993000	2.016154
3.994000	1.940462
3.995000	1.759445
3.996000	1.629319
3.997000	1.576495
3.998000	1.507245
3.999000	1.533012
4.000000	1.587446
4.001000	1.590023
4.002000	1.670547
4.003000	1.793587
4.004000	1.846733
4.005000	1.861549
4.006000	1.916627
4.007000	2.156266
4.008000	2.304107
4.009000	2.272542
4.010000	2.298310
4.011000	2.227127
4.012000	1.906964
4.013000	1.510144
4.014000	1.145855
4.015000	1.029257
4.016000	1.098829
4.017000	1.281457
4.018000	1.516586
4.019000	1.741730
4.020000	1.977503
4.021000	2.045143
4.022000	1.997151
4.023000	1.811302
4.024000	1.664105
4.025000	1.337823
4.026000	1.026680
4.027000	0.803147
4.028000	0.737117
4.029000	0.769327
4.030000	0.875296
4.031000	1.043751
4.032000	1.345231
4.033000	1.622233
4.034000	1.714996
4.035000	1.757512
4.036000	1.779093
4.037000	1.778126
4.038000	1.867347
4.039000	2.221973
4.040000	2.420706
4.041000	2.457747
4.042000	2.420384
4.043000	2.257403
4.044000	1.981690
4.045000	1.698569
4.046000	1.356505
4.047000	1.179353
4.048000	1.107526
4.049000	1.122986
4.050000	1.207697
4.051000	1.264708
4.052000	1.309801
4.053000	1.376152
4.054000	1.309801
4.055000	1.265030
4.056000	1.258910
4.057000	1.248603
4.058000	1.267607
4.059000	1.358759
4.060000	1.521095
4.061000	1.667004
4.062000	1.908897
4.063000	2.195883
4.064000	2.277051
4.065000	2.142416
4.066000	1.946904
4.067000	1.815489
4.068000	1.735610
4.069000	1.702434
4.070000	1.676989
4.071000	1.622233
4.072000	1.638015
4.073000	1.550728
4.074000	1.439927
4.075000	1.335891
4.076000	1.255045
4.077000	1.259876
4.078000	1.299816
4.079000	1.327838
4.080000	1.313344
4.081000	1.361014
4.082000	1.443792
4.083000	1.490496
4.084000	1.524960
4.085000	1.647678
4.086000	1.731745
4.087000	1.695026
4.088000	1.675378
4.089000	1.721116
4.090000	1.698569
4.091000	1.555559
4.092000	1.462474
4.093000	1.439927
4.094000	1.459575
4.095000	1.590023
4.096000	1.938852
4.097000	2.286070
4.098000	2.409110
4.099000	2.358863
4.100000	2.106019
4.101000	1.798418
4.102000	1.579072
4.103000	1.579394
4.104000	1.552338
4.105000	1.485020
4.106000	1.478901
4.107000	1.428654
4.108000	1.459253
4.109000	1.668292
4.110000	1.907931
4.111000	2.110528
4.112000	2.150468
4.113000	1.967518
4.114000	1.611926
4.115000	1.226056
4.116000	0.978044
4.117000	0.820540
4.118000	0.758375
4.119000	0.761919
4.120000	0.885603
4.121000	1.151008
4.122000	1.296917
4.123000	1.279846
4.124000	1.278236
4.125000	1.390647
4.126000	1.527859
4.127000	1.682464
4.128000	1.765887
4.129000	1.776516
4.130000	1.737542
4.131000	1.659273
4.132000	1.505634
4.133000	1.310123
4.134000	1.182574
4.135000	1.169046
4.136000	1.261809
4.137000	1.382594
4.138000	1.490818
4.139000	1.563289
4.140000	1.658307
4.141000	1.705977
4.142000	1.687940
4.143000	1.662172
4.144000	1.685685
4.145000	1.805504
4.146000	1.973316
4.147000	2.225838
4.148000	2.388174
4.149000	2.384953
4.150000	2.297987
4.151000	2.062858
4.152000	1.861227
4.153000	1.687618
4.154000	1.479223
4.155000	1.433485
4.156000	1.489208
4.157000	1.521095
4.158000	1.454099
4.159000	1.316243
4.160000	1.236041
4.161000	1.236686
4.162000	1.215427
4.163000	1.167435
4.164000	1.173877
4.165000	1.234431
4.166000	1.355216
4.167000	1.384527
4.168000	1.353284
4.169000	1.260843
4.170000	1.189660
4.171000	1.203188
4.172000	1.375186
4.173000	1.745273
4.174000	2.121801
4.175000	2.344369
4.176000	2.427148
4.177000	2.447117
4.178000	2.442286
4.179000	2.355642
4.180000	2.078963
4.181000	1.792943
4.182000	1.544286
4.183000	1.372931
4.184000	1.285966
4.185000	1.294340
4.186000	1.389036
4.187000	1.479867
4.188000	1.480511
4.189000	1.377441
4.190000	1.239906
4.191000	1.211884
4.192000	1.252790
4.193000	1.274048
4.194000	1.469560
4.195000	1.652832
4.196000	1.619656
4.197000	1.560390
4.198000	1.428332
4.199000	1.292730
4.200000	1.219292
4.201000	1.262775
4.202000	1.346842
4.203000	1.372287
4.204000	1.403530
4.205000	1.477612
4.206000	1.600330
4.207000	1.797774
4.208000	1.967840
4.209000	2.065757
4.210000	2.050296
4.211000	1.952380
4.212000	1.773295
4.213000	1.553949
4.214000	1.381628
4.215000	1.313666
4.216000	1.217360
4.217000	1.120732
4.218000	1.152941
4.219000	1.317209
4.220000	1.530436
4.221000	1.661206
4.222000	1.824508
4.223000	2.091847
4.224000	2.343403
4.225000	2.402990
4.226000	2.374324
4.227000	2.218108
4.228000	1.860583
4.229000	1.562001
4.230000	1.485342
4.231000	1.618690
4.232000	1.664749
4.233000	1.516263
4.234000	1.306258
4.235000	1.190304
4.236000	1.211240
4.237000	1.209307
4.238000	1.190948
4.239000	1.186761
4.240000	1.200289
4.241000	1.176132
4.242000	1.186439
4.243000	1.197390
4.244000	1.260198
4.245000	1.428010
4.246000	1.787145
4.247000	2.125345
4.248000	2.315703
4.249000	2.351455
4.250000	2.323755
4.251000	2.173015
4.252000	1.964297
4.253000	1.716928
4.254000	1.529469
4.255000	1.478578
4.256000	1.474391
4.257000	1.462796
4.258000	1.378085
4.259000	1.305614
4.260000	1.258588
4.261000	1.253112
4.262000	1.306258
4.263000	1.376152
4.264000	1.457642
4.265000	1.506279
4.266000	1.436384
4.267000	1.306258
4.268000	1.165503
4.269000	1.071773
4.270000	1.045039
4.271000	1.167113
4.272000	1.369388
4.273000	1.633184
4.274000	1.874433
4.275000	2.048686
4.276000	2.104408
4.277000	2.012933
4.278000	1.927578
4.279000	1.867347
4.280000	1.775550
4.281000	1.699213
4.282000	1.647678
4.283000	1.577461
4.284000	1.609349
4.285000	1.611926
4.286000	1.673768
4.287000	1.698569
4.288000	1.725947
4.289000	1.692771
4.290000	1.574563
4.291000	1.462796
4.292000	1.502736
4.293000	1.614502
4.294000	1.688262
4.295000	1.656053
4.296000	1.653798
4.297000	1.691483
4.298000	1.556847
4.299000	1.299494
4.300000	1.144567
4.301000	1.182896
4.302000	1.326550
4.303000	1.446047
4.304000	1.543964
4.305000	1.550406
4.306000	1.504346
4.307000	1.453133
4.308000	1.466661
4.309000	1.523350
4.310000	1.637371
4.311000	1.747527
4.312000	1.813879
4.313000	1.797774
4.314000	1.690195
4.315000	1.698247
4.316000	1.858972
4.317000	1.952702
4.318000	2.001660
4.319000	1.963009
4.320000	1.772329
4.321000	1.520773
4.322000	1.260198
4.323000	1.132005
4.324000	1.048582
4.325000	1.072095
4.326000	1.311089
4.327000	1.602263
4.328000	1.755580
4.329000	1.727558
4.330000	1.629641
4.331000	1.522705
4.332000	1.425755
4.333000	1.464406
4.334000	1.661206
4.335000	1.908897
4.336000	2.052873
4.337000	2.103764
4.338000	2.025817
4.339000	1.861227
4.340000	1.712419
4.341000	1.683108
4.342000	1.590989
4.343000	1.600974
4.344000	1.778126
4.345000	1.863481
4.346000	1.824186
4.347000	1.664749
4.348000	1.474713
4.349000	1.311411
4.350000	1.208985
4.351000	1.123630
4.352000	1.032156
4.353000	1.046650
4.354000	1.150686
4.355000	1.219292
4.356000	1.268251
4.357000	1.271794
4.358000	1.295951
4.359000	1.365845
4.360000	1.543642
4.361000	1.790688
4.362000	1.907608
4.363000	2.016476
4.364000	2.067367
4.365000	2.037413
4.366000	2.034192
4.367000	1.984911
4.368000	1.944649
4.369000	1.874111
4.370000	1.954312
4.371000	2.039989
4.372000	2.087015
4.373000	1.987488
4.374000	1.712097
4.375000	1.553304
4.376000	1.397733
4.377000	1.235075
4.378000	1.156806
4.379000	1.162282
4.380000	1.202866
4.381000	1.257300
4.382000	1.325584
4.383000	1.355216
4.384000	1.324617
4.385000	1.271794
4.386000	1.236041
4.387000	1.263097
4.388000	1.318497
4.389000	1.557492
4.390000	2.046753
4.391000	2.359185
4.392000	2.421994
4.393000	2.366594
4.394000	2.051585
4.395000	1.696314
4.396000	1.407718
4.397000	1.194813
4.398000	1.065331
4.399000	1.005422
4.400000	1.087878
4.401000	1.167113
4.402000	1.187083
4.403000	1.256333
4.404000	1.383883
4.405000	1.641236
4.406000	1.861549
4.407000	2.015832
4.408000	2.105375
4.409000	2.090558
4.410000	2.110528
4.411000	2.011645
4.412000	1.915983
4.413000	1.835459
4.414000	1.708876
4.415000	1.562001
4.416000	1.595499
4.417000	1.685685
4.418000	1.715640
4.419000	1.639626
4.420000	1.487275
4.421000	1.423822
4.422000	1.393545
4.423000	1.379695
4.424000	1.369388
4.425000	1.367778
4.426000	1.375508
4.427000	1.357471
4.428000	1.369388
4.429000	1.409006
4.430000	1.428010
4.431000	1.429942
4.432000	1.394834
4.433000	1.372609
4.434000	1.371321
4.435000	1.383238
4.436000	1.387426
4.437000	1.376474
4.438000	1.302715
4.439000	1.255367
4.440000	1.241195
4.441000	1.463440
4.442000	1.792943
4.443000	2.066401
4.444000	2.107629
4.445000	1.957533
4.446000	1.694060
4.447000	1.466339
4.448000	1.390325
4.449000	1.396444
4.450000	1.482766
4.451000	1.613214
4.452000	1.659918
4.453000	1.634472
4.454000	1.527537
4.455000	1.427043
4.456000	1.393223
4.457000	1.444114
4.458000	1.602907
4.459000	1.832882
4.460000	2.075742
4.461000	2.206835
4.462000	2.330841
4.463000	2.311515
4.464000	2.116326
4.465000	1.827729
4.466000	1.655086
4.467000	1.527215
4.468000	1.484376
4.469000	1.550728
4.470000	1.673768
4.471000	1.627064
4.472000	1.500803
4.473000	1.374220
4.474000	1.267284
4.475000	1.218970
4.476000	1.185473
4.477000	1.187083
4.478000	1.209307
4.479000	1.242483
4.480000	1.267929
4.481000	1.322685
4.482000	1.383561
4.483000	1.520773
4.484000	1.787789
4.485000	2.122124
4.486000	2.182677
4.487000	2.055450
4.488000	1.782636
4.489000	1.500481
4.490000	1.369388
4.491000	1.419635
4.492000	1.558458
4.493000	1.651865
4.494000	1.555237
4.495000	1.376474
4.496000	1.243772
4.497000	1.185150
4.498000	1.192559
4.499000	1.218970
4.500000	1.288865
4.501000	1.335891
4.502000	1.366490
4.503000	1.341044
4.504000	1.318175
4.505000	1.306258
4.506000	1.304325
4.507000	1.354572
4.508000	1.391291
4.509000	1.388070
4.510000	1.370355
4.511000	1.361658
4.512000	1.445081
4.513000	1.549439
4.514000	1.630929
4.515000	1.848021
4.516000	2.006169
4.517000	2.152400
4.518000	2.167861
4.519000	1.940784
4.520000	1.789722
4.521000	1.668936
4.522000	1.685363
4.523000	1.669903
4.524000	1.644457
4.525000	1.722726
4.526000	1.679565
4.527000	1.709520
4.528000	1.823220
4.529000	1.872822
4.530000	1.895369
4.531000	1.794875
4.532000	1.695992
4.533000	1.766531
4.534000	1.855107
4.535000	1.835459
4.536000	1.856073
4.537000	1.878620
4.538000	1.846088
4.539000	1.775872
4.540000	1.712419
4.541000	1.719505
4.542000	1.776194
4.543000	1.652187
4.544000	1.454421
4.545000	1.245060
4.546000	1.086590
4.547000	1.020238
4.548000	1.004456
4.549000	1.057601
4.550000	1.137158
4.551000	1.276947
4.552000	1.539132
4.553000	1.904065
4.554000	2.200071
4.555000	2.326654
4.556000	2.275763
4.557000	2.014222
4.558000	1.652187
4.559000	1.404175
4.560000	1.240873
4.561000	1.106559
4.562000	1.003167
4.563000	0.971602
4.564000	0.972890
4.565000	0.970636
4.566000	1.003489
4.567000	1.106237
4.568000	1.323329
4.569000	1.611926
4.570000	1.762022
4.571000	1.804216
4.572000	1.862515
4.573000	2.020342
4.574000	2.191374
4.575000	2.290257
4.576000	2.228737
4.577000	2.113749
4.578000	1.913728
4.579000	1.525926
4.580000	1.272116
4.581000	1.285966
4.582000	1.319464
4.583000	1.312700
4.584000	1.325584
4.585000	1.361014
4.586000	1.384527
4.587000	1.490818
4.588000	1.602907
4.589000	1.599686
4.590000	1.555237
4.591000	1.523350
4.592000	1.522061
4.593000	1.527537
4.594000	1.573596
4.595000	1.626098
4.596000	1.686329
4.597000	2.048364
4.598000	2.398481
4.599000	2.454204
4.600000	2.408788
4.601000	2.075742
4.602000	1.628352
4.603000	1.350063
4.604000	1.204798
4.605000	1.171945
4.606000	1.241517
4.607000	1.342655
4.608000	1.418669
4.609000	1.410939
4.610000	1.344909
4.611000	1.269539
4.612000	1.227345
4.613000	1.219615
4.614000	1.227989
4.615000	1.259554
4.616000	1.366490
4.617000	1.686974
4.618000	2.031615
4.619000	2.231958
4.620000	2.337283
4.621000	2.412653
4.622000	2.444219
4.623000	2.389140
4.624000	1.967840
4.625000	1.323973
4.626000	0.935527
4.627000	0.779634
4.628000	0.789941
4.629000	0.906861
4.630000	1.160993
4.631000	1.435418
4.632000	1.657663
4.633000	1.710486
4.634000	1.639948
4.635000	1.608060
4.636000	1.620944
4.637000	1.788111
4.638000	1.974926
4.639000	2.058671
4.640000	1.965263
4.641000	1.890537
4.642000	1.839646
4.643000	1.780059
4.644000	1.702756
4.645000	1.613536
4.646000	1.530436
4.647000	1.406751
4.648000	1.264064
4.649000	1.248925
4.650000	1.356827
4.651000	1.463762
4.652000	1.500481
4.653000	1.456354
4.654000	1.432197
4.655000	1.506923
4.656000	1.825796
4.657000	2.029038
4.658000	2.062536
4.659000	1.957855
4.660000	1.804216
4.661000	1.674412
4.662000	1.426077
4.663000	1.153263
4.664000	1.155840
4.665000	1.251180
4.666000	1.353606
4.667000	1.461507
4.668000	1.640270
4.669000	1.744951
4.670000	1.687296
4.671000	1.539454
4.672000	1.286610
4.673000	1.103016
4.674000	1.026680
4.675000	1.041174
4.676000	1.084335
4.677000	1.181285
4.678000	1.416736
4.679000	1.672479
4.680000	1.850920
4.681000	1.897301
4.682000	1.799385
4.683000	1.708554
4.684000	1.679565
4.685000	1.652509
4.686000	1.651543
4.687000	1.536555
4.688000	1.445081
4.689000	1.513365
4.690000	1.819999
4.691000	2.254182
4.692000	2.431657
4.693000	2.487057
4.694000	2.495110
4.695000	2.462578
4.696000	2.387530
4.697000	2.154655
4.698000	1.717250
4.699000	1.426077
4.700000	1.272438
4.701000	1.101406
4.702000	0.931340
4.703000	0.841798
4.704000	0.823116
4.705000	0.884959
4.706000	0.989317
4.707000	1.169690
4.708000	1.394512
4.709000	1.517230
4.710000	1.514331
4.711000	1.491140
4.712000	1.636405
4.713000	1.891504
4.714000	2.082506
4.715000	2.113427
4.716000	2.059959
4.717000	2.083794
4.718000	2.335028
4.719000	2.435200
4.720000	2.349845
4.721000	1.866702
4.722000	1.296273
4.723000	0.953887
4.724000	0.823116
4.725000	0.815064
4.726000	0.910082
4.727000	1.033122
4.728000	1.149720
4.729000	1.311734
4.730000	1.409006
4.731000	1.493395
4.732000	1.664749
4.733000	1.870568
4.734000	1.981690
4.735000	1.988454
4.736000	2.093457
4.737000	2.151112
4.738000	2.208123
4.739000	2.297987
4.740000	2.179456
4.741000	1.978469
4.742000	1.754613
4.743000	1.601296
4.744000	1.456676
4.745000	1.311411
4.746000	1.199645
4.747000	1.127818
4.748000	1.098185
4.749000	1.090777
4.750000	1.074350
4.751000	1.007999
4.752000	0.904284
4.753000	0.854037
4.754000	0.859191
4.755000	0.856936
4.756000	0.998980
4.757000	1.232820
4.758000	1.586158
4.759000	1.841901
4.760000	1.943683
4.761000	1.999728
4.762000	2.059959
4.763000	2.038701
4.764000	1.981046
4.765000	1.911151
4.766000	1.848665
4.767000	1.842223
4.768000	1.919848
4.769000	2.077674
4.770000	2.228093
4.771000	2.235501
4.772000	2.116970
4.773000	2.048042
4.774000	2.046109
4.775000	2.168183
4.776000	2.248385
4.777000	2.068334
4.778000	1.706621
4.779000	1.458609
4.780000	1.233142
4.781000	1.209952
4.782000	1.214461
4.783000	1.325906
4.784000	1.393223
4.785000	1.514009
4.786000	1.596143
4.787000	1.497582
4.788000	1.436062
4.789000	1.559102
4.790000	1.763310
4.791000	1.824186
4.792000	1.705655
4.793000	1.454099
4.794000	1.160671
4.795000	1.032156
4.796000	0.926509
4.797000	0.899775
4.798000	0.906539
4.799000	0.933595
4.800000	1.019916
4.801000	1.178064
4.802000	1.412227
4.803000	1.637371
4.804000	1.847377
4.805000	1.988454
4.806000	1.974604
4.807000	1.874111
4.808000	1.702756
4.809000	1.540421
4.810000	1.506601
4.811000	1.583259
4.812000	1.626420
4.813000	1.631251
4.814000	1.687296
4.815000	1.899556
4.816000	2.170760
4.817000	2.298310
4.818000	2.319568
4.819000	2.185898
4.820000	1.763954
4.821000	1.328482
4.822000	1.149720
4.823000	1.170334
4.824000	1.258588
4.825000	1.404819
4.826000	1.518518
4.827000	1.799063
4.828000	2.201037
4.829000	2.315381
4.830000	2.213276
4.831000	1.936597
4.832000	1.677955
4.833000	1.363591
4.834000	1.108170
4.835000	0.970636
4.836000	0.896876
4.837000	0.871753
4.838000	0.902352
4.839000	1.020560
4.840000	1.237330
4.841000	1.540743
4.842000	1.810980
4.843000	2.009068
4.844000	1.954634
4.845000	1.718539
4.846000	1.483410
4.847000	1.419313
4.848000	1.567154
4.849000	1.862193
4.850000	2.133075
4.851000	2.298954
4.852000	2.377545
4.853000	2.335995
4.854000	2.200715
4.855000	2.054484
4.856000	1.871856
4.857000	1.737865
4.858000	1.714352
4.859000	1.719183
4.860000	1.769752
4.861000	1.762666
4.862000	1.632862
4.863000	1.640592
4.864000	1.654442
4.865000	1.453133
4.866000	1.278236
4.867000	1.269217
4.868000	1.408040
4.869000	1.655086
4.870000	1.899878
4.871000	1.836426
4.872000	1.657663
4.873000	1.588735
4.874000	1.633506
4.875000	1.648644
4.876000	1.598398
4.877000	1.508211
4.878000	1.307868
4.879000	1.097863
4.880000	0.982875
4.881000	0.923932
4.882000	0.925220
4.883000	1.027002
4.884000	1.134582
4.885000	1.171300
4.886000	1.228311
4.887000	1.284355
4.888000	1.286932
4.889000	1.298528
4.890000	1.359403
4.891000	1.453777
4.892000	1.531724
4.893000	1.600652
4.894000	1.617401
4.895000	1.601941
4.896000	1.698891
4.897000	1.897623
4.898000	2.131142
4.899000	2.298310
4.900000	2.306040
4.901000	2.020986
4.902000	1.752037
4.903000	1.528503
4.904000	1.390325
4.905000	1.187083
4.906000	1.063399
4.907000	1.002201
4.908000	1.040530
4.909000	1.167113
4.910000	1.267284
4.911000	1.381306
4.912000	1.486309
4.913000	1.523027
4.914000	1.545574
4.915000	1.545252
4.916000	1.552338
4.917000	1.644135
4.918000	1.913084
4.919000	2.207157
4.920000	2.365627
4.921000	2.396549
4.922000	2.383021
4.923000	2.340826
4.924000	2.324077
4.925000	2.333418
4.926000	2.329875
4.927000	2.229381
4.928000	2.164640
4.929000	1.898912
4.930000	1.507245
4.931000	1.138769
4.932000	0.933273
4.933000	0.931984
4.934000	1.058245
4.935000	1.274693
4.936000	1.359403
4.937000	1.386459
4.938000	1.338789
4.939000	1.247959
4.940000	1.177420
4.941000	1.240229
4.942000	1.311411
4.943000	1.360692
4.944000	1.664427
4.945000	1.928222
4.946000	2.116970
4.947000	2.210055
4.948000	2.038379
4.949000	1.725947
4.950000	1.453455
4.951000	1.308513
4.952000	1.314310
4.953000	1.282423
4.954000	1.319786
4.955000	1.476002
4.956000	1.674090
4.957000	1.746239
4.958000	1.623199
4.959000	1.484698
4.960000	1.349419
4.961000	1.226378
4.962000	1.081436
4.963000	1.034410
4.964000	1.099473
4.965000	1.234431
4.966000	1.369711
4.967000	1.508211
4.968000	1.734644
4.969000	2.042566
4.970000	2.314736
4.971000	2.430368
4.972000	2.448728
4.973000	2.383987
4.974000	2.112139
4.975000	1.651865
4.976000	1.225734
4.977000	1.006710
4.978000	0.896876
4.979000	0.881093
4.980000	0.931018
4.981000	0.985452
4.982000	1.035054
4.983000	1.137480
4.984000	1.254079
4.985000	1.374542
4.986000	1.447013
4.987000	1.510788
4.988000	1.573274
4.989000	1.681498
4.990000	1.799707
4.991000	1.864448
4.992000	1.846410
4.993000	1.917271
4.994000	2.239688
4.995000	2.441964
4.996000	2.468054
4.997000	2.412009
4.998000	2.148857
4.999000	1.690839
5.000000	1.368422
5.001000	1.150686
5.002000	0.997369
5.003000	0.976111
5.004000	1.051803
5.005000	1.165825
5.006000	1.354250
5.007000	1.610315
5.008000	1.813235
5.009000	1.874111
5.010000	1.876365
5.011000	1.966874
5.012000	2.213276
5.013000	2.432623
5.014000	2.464188
5.015000	2.398481
5.016000	2.103764
5.017000	1.726269
5.018000	1.435096
5.019000	1.234753
5.020000	1.042785
5.021000	0.909760
5.022000	0.837289
5.023000	0.898809
5.024000	1.076927
5.025000	1.287576
5.026000	1.479545
5.027000	1.635761
5.028000	1.763310
5.029000	1.860905
5.030000	1.920492
5.031000	1.811624
5.032000	1.648966
5.033000	1.459897
5.034000	1.281135
5.035000	1.137803
5.036000	1.180641
5.037000	1.290797
5.038000	1.504346
5.039000	1.647678
5.040000	1.637371
5.041000	1.492428
5.042000	1.292086
5.043000	1.155196
5.044000	1.222191
5.045000	1.551372
5.046000	2.024529
5.047000	2.378833
5.048000	2.460323
5.049000	2.474496
5.050000	2.431979
5.051000	2.287680
5.052000	1.930477
5.053000	1.457964
5.054000	1.127818
5.055000	0.945512
5.056000	0.911692
5.057000	0.906539
5.058000	0.917168
5.059000	0.963872
5.060000	1.031511
5.061000	1.218326
5.062000	1.492106
5.063000	1.682142
5.064000	1.845766
5.065000	2.020020
5.066000	2.138550
5.067000	2.217142
5.068000	2.191374
5.069000	2.096678
5.070000	1.904065
5.071000	1.721438
5.072000	1.551050
5.073000	1.420601
5.074000	1.276625
5.075000	1.253757
5.076000	1.285644
5.077000	1.327194
5.078000	1.397089
5.079000	1.583903
5.080000	1.701790
5.081000	1.710486
5.082000	1.640270
5.083000	1.507889
5.084000	1.422856
5.085000	1.464084
5.086000	2.068334
5.087000	2.452915
5.088000	2.495110
5.089000	2.496398
5.090000	2.458391
5.091000	2.221651
5.092000	1.678599
5.093000	1.288865
5.094000	1.036665
5.095000	0.911048
5.096000	0.863378
5.097000	0.815386
5.098000	0.757087
5.099000	0.782210
5.100000	0.876584
5.101000	1.087556
5.102000	1.364235
5.103000	1.741730
5.104000	1.979436
5.105000	1.959788
5.106000	1.772329
5.107000	1.511110
5.108000	1.318820
5.109000	1.069841
5.110000	0.903962
5.111000	0.923932
5.112000	1.040208
5.113000	1.246348
5.114000	1.602263
5.115000	1.955601
5.116000	2.177202
5.117000	2.239044
5.118000	2.162063
5.119000	2.030649
5.120000	1.905032
5.121000	1.767497
5.122000	1.667648
5.123000	1.570697
5.124000	1.524638
5.125000	1.611926
5.126000	1.755580
5.127000	1.773617
5.128000	1.722404
5.129000	1.613214
5.130000	1.597109
5.131000	1.581004
5.132000	1.488563
5.133000	1.450556
5.134000	1.499837
5.135000	1.476968
5.136000	1.502413
5.137000	1.569731
5.138000	1.864448
5.139000	2.044499
5.140000	2.003593
5.141000	1.915017
5.142000	1.796486
5.143000	1.696959
5.144000	1.580360
5.145000	1.545574
5.146000	1.587124
5.147000	1.755258
5.148000	1.788755
5.149000	1.663783
5.150000	1.381306
5.151000	1.153585
5.152000	0.995759
5.153000	1.018950
5.154000	1.267607
5.155000	1.679243
5.156000	1.998761
5.157000	2.081540
5.158000	1.966874
5.159000	1.824508
5.160000	1.733355
5.161000	1.532046
5.162000	1.292408
5.163000	1.066620
5.164000	0.852427
5.165000	0.791551
5.166000	0.822150
5.167000	0.957752
5.168000	1.220259
5.169000	1.568765
5.170000	1.775550
5.171000	1.698891
5.172000	1.643169
5.173000	1.673124
5.174000	1.669258
5.175000	1.680210
5.176000	1.708554
5.177000	1.859294
5.178000	2.033547
5.179000	2.192662
5.180000	2.370137
5.181000	2.464188
5.182000	2.488346
5.183000	2.464833
5.184000	2.371103
5.185000	2.107307
5.186000	1.649933
5.187000	1.308835
5.188000	1.163570
5.189000	1.122342
5.190000	1.086912
5.191000	1.110747
5.192000	1.124597
5.193000	1.120409
5.194000	1.105271
5.195000	1.103983
5.196000	1.100118
5.197000	1.120732
5.198000	1.194813
5.199000	1.279202
5.200000	1.341688
5.201000	1.356183
5.202000	1.382594
5.203000	1.528825
5.204000	1.723048
5.205000	1.850276
5.206000	1.983301
5.207000	2.057705
5.208000	1.999728
5.209000	1.900844
5.210000	1.778448
5.211000	1.619012
5.212000	1.481477
5.213000	1.365201
5.214000	1.260520
5.215000	1.186439
5.216000	1.169368
5.217000	1.258588
5.218000	1.404497
5.219000	1.580682
5.220000	1.829984
5.221000	2.085727
5.222000	2.233891
5.223000	2.245486
5.224000	2.135329
5.225000	1.917593
5.226000	1.803250
5.227000	1.653154
5.228000	1.511754
5.229000	1.330737
5.230000	1.200611
5.231000	1.148110
5.232000	1.167435
5.233000	1.175810
5.234000	1.220903
5.235000	1.316243
5.236000	1.461507
5.237000	1.544608
5.238000	1.621266
5.239000	1.701146
5.240000	1.781992
5.241000	1.860583
5.242000	1.962365
5.243000	2.376579
5.244000	2.495754
5.245000	2.766958
5.246000	2.772112
5.247000	2.695775
5.248000	2.484158
5.249000	1.868957
5.250000	1.314632
5.251000	1.065976
5.252000	0.956141
5.253000	0.876584
5.254000	0.835356
5.255000	0.845341
5.256000	0.928441
5.257000	1.040208
5.258000	1.142312
5.259000	1.270505
5.260000	1.369388
5.261000	1.424467
5.262000	1.402242
5.263000	1.320752
5.264000	1.275015
5.265000	1.246026
5.266000	1.293374
5.267000	1.576817
5.268000	1.778771
5.269000	1.900522
5.270000	2.055772
5.271000	2.270609
5.272000	2.391717
5.273000	2.402668
5.274000	2.343725
5.275000	2.088626
5.276000	1.733677
5.277000	1.307546
5.278000	1.069196
5.279000	1.012830
5.280000	1.060500
5.281000	1.222513
5.282000	1.584225
5.283000	1.880230
5.284000	1.997795
5.285000	2.027750
5.286000	1.957211
5.287000	1.789722
5.288000	1.551050
5.289000	1.259554
5.290000	1.015729
5.291000	0.912014
5.292000	0.879483
5.293000	0.947445
5.294000	1.058889
5.295000	1.175488
5.296000	1.296595
5.297000	1.380662
5.298000	1.471814
5.299000	1.619334
5.300000	1.721116
5.301000	1.823220
5.302000	1.944649
5.303000	2.139517
5.304000	2.298310
5.305000	2.350811
5.306000	2.336961
5.307000	2.105375
5.308000	1.791976
5.309000	1.500803
5.310000	1.329449
5.311000	1.271150
5.312000	1.232498
5.313000	1.180319
5.314000	1.139091
5.315000	1.174521
5.316000	1.272760
5.317000	1.399987
5.318000	1.500803
5.319000	1.626098
5.320000	1.838358
5.321000	2.011967
5.322000	2.054162
5.323000	1.963975
5.324000	1.805827
5.325000	1.569087
5.326000	1.392901
5.327000	1.377441
5.328000	1.453455
5.329000	1.662172
5.330000	1.832238
5.331000	1.843834
5.332000	1.660240
5.333000	1.516263
5.334000	1.341044
5.335000	1.277269
5.336000	1.448624
5.337000	1.615469
5.338000	1.687618
5.339000	1.652509
5.340000	1.608705
5.341000	1.553304
5.342000	1.435418
5.343000	1.329449
5.344000	1.284678
5.345000	1.373576
5.346000	1.536233
5.347000	1.611281
5.348000	1.649289
5.349000	1.700179
5.350000	1.782636
5.351000	1.752681
5.352000	1.676022
5.353000	1.532690
5.354000	1.283711
5.355000	1.123308
5.356000	1.073062
5.357000	1.112357
5.358000	1.193525
5.359000	1.268573
5.360000	1.263419
5.361000	1.236686
5.362000	1.197712
5.363000	1.240873
5.364000	1.442504
5.365000	1.712741
5.366000	2.005203
5.367000	2.150468
5.368000	2.152723
5.369000	2.127921
5.370000	2.164318
5.371000	2.221329
5.372000	2.230670
5.373000	2.164640
5.374000	1.999728
5.375000	1.755902
5.376000	1.628674
5.377000	1.552016
5.378000	1.514331
5.379000	1.423822
5.380000	1.415448
5.381000	1.451522
5.382000	1.461830
5.383000	1.441860
5.384000	1.562645
5.385000	1.672801
5.386000	1.704045
5.387000	1.655730
5.388000	1.503380
5.389000	1.370999
5.390000	1.316565
5.391000	1.341044
5.392000	1.422856
5.393000	1.483410
5.394000	1.566510
5.395000	1.631251
5.396000	1.640914
5.397000	1.585836
5.398000	1.377119
5.399000	1.120409
5.400000	0.959040
5.401000	0.920711
5.402000	0.979654
5.403000	1.171945
5.404000	1.496616
5.405000	1.781025
5.406000	1.916305
5.407000	1.935953
5.408000	1.913084
5.409000	1.879586
5.410000	1.849953
5.411000	1.875077
5.412000	1.938207
5.413000	2.113427
5.414000	2.126633
5.415000	2.057383
5.416000	2.011967
5.417000	1.953668
5.418000	1.961398
5.419000	1.792943
5.420000	1.578106
5.421000	1.451522
5.422000	1.412549
5.423000	1.357149
5.424000	1.311411
5.425000	1.387748
5.426000	1.621910
5.427000	1.858328
5.428000	1.889571
5.429000	1.797774
5.430000	1.656697
5.431000	1.494683
5.432000	1.312378
5.433000	1.148432
5.434000	1.021204
5.435000	0.953243
5.436000	0.914913
5.437000	0.976755
5.438000	1.112357
5.439000	1.355860
5.440000	1.585514
5.441000	1.670225
5.442000	1.706621
5.443000	1.699857
5.444000	1.675378
5.445000	1.612570
5.446000	1.603551
5.447000	1.563933
5.448000	1.518196
5.449000	1.494683
5.450000	1.493395
5.451000	1.531402
5.452000	1.662816
5.453000	1.903421
5.454000	2.207801
5.455000	2.354676
5.456000	2.198138
5.457000	1.878620
5.458000	1.567799
5.459000	1.319464
5.460000	1.253434
5.461000	1.321074
5.462000	1.451522
5.463000	1.537522
5.464000	1.630285
5.465000	1.691483
5.466000	1.692771
5.467000	1.688584
5.468000	1.635438
5.469000	1.539132
5.470000	1.449268
5.471000	1.351995
5.472000	1.303037
5.473000	1.313022
5.474000	1.413515
5.475000	1.584225
5.476000	1.730456
5.477000	1.773295
5.478000	1.799385
5.479000	1.777482
5.480000	1.689550
5.481000	1.747205
5.482000	1.864448
5.483000	1.894080
5.484000	1.918238
5.485000	1.855429
5.486000	1.857362
5.487000	1.938207
5.488000	1.998439
5.489000	1.873788
5.490000	1.593566
5.491000	1.409006
5.492000	1.275337
5.493000	1.140379
5.494000	1.101406
5.495000	1.060178
5.496000	0.991250
5.497000	1.009609
5.498000	1.092065
5.499000	1.205120
5.500000	1.282101
5.501000	1.351351
5.502000	1.401276
5.503000	1.498870
5.504000	1.627064
5.505000	1.758479
5.506000	1.874755
5.507000	1.922747
5.508000	1.926612
5.509000	1.949159
5.510000	1.928545
5.511000	1.809692
5.512000	1.709842
5.513000	1.609993
5.514000	1.466339
5.515000	1.309157
5.516000	1.242805
5.517000	1.298206
5.518000	1.332992
5.519000	1.327194
5.520000	1.353284
5.521000	1.420601
5.522000	1.493073
5.523000	1.490818
5.524000	1.481799
5.525000	1.450556
5.526000	1.441538
5.527000	1.463762
5.528000	1.509499
5.529000	1.571342
5.530000	1.659918
5.531000	1.648000
5.532000	1.541065
5.533000	1.461830
5.534000	1.465695
5.535000	1.609993
5.536000	1.759767
5.537000	1.889893
5.538000	1.886350
5.539000	1.789078
5.540000	1.839002
5.541000	1.823864
5.542000	1.689550
5.543000	1.524316
5.544000	1.471170
5.545000	1.457642
5.546000	1.469238
5.547000	1.491462
5.548000	1.612892
5.549000	1.738831
5.550000	1.820643
5.551000	1.812268
5.552000	1.737220
5.553000	1.712741
5.554000	1.775550
5.555000	1.927578
5.556000	2.013256
5.557000	1.904065
5.558000	1.816778
5.559000	1.755580
5.560000	1.651865
5.561000	1.519484
5.562000	1.388392
5.563000	1.284033
5.564000	1.263741
5.565000	1.355216
5.566000	1.446047
5.567000	1.473747
5.568000	1.511754
5.569000	1.583259
5.570000	1.686329
5.571000	1.698891
5.572000	1.633828
5.573000	1.567477
5.574000	1.508855
5.575000	1.376152
5.576000	1.203510
5.577000	1.160349
5.578000	1.166791
5.579000	1.179353
5.580000	1.310445
5.581000	1.473425
5.582000	1.514331
5.583000	1.475680
5.584000	1.492106
5.585000	1.718539
5.586000	1.951091
5.587000	2.045143
5.588000	1.976215
5.589000	1.885706
5.590000	1.693093
5.591000	1.507245
5.592000	1.453455
5.593000	1.317209
5.594000	1.230888
5.595000	1.285966
5.596000	1.348774
5.597000	1.346842
5.598000	1.328805
5.599000	1.326550
5.600000	1.399665
5.601000	1.559424
5.602000	1.617723
5.603000	1.635761
5.604000	1.664749
5.605000	1.692127
5.606000	1.631573
5.607000	1.412549
5.608000	1.353606
5.609000	1.418991
5.610000	1.525604
5.611000	1.545574
5.612000	1.525604
5.613000	1.549439
5.614000	1.695992
5.615000	2.032259
5.616000	2.199426
5.617000	2.101832
5.618000	1.930799
5.619000	1.752359
5.620000	1.662494
5.621000	1.664427
5.622000	1.760089
5.623000	1.806471
5.624000	1.713385
5.625000	1.746239
5.626000	1.817744
5.627000	1.806149
5.628000	1.647356
5.629000	1.448946
5.630000	1.276625
5.631000	1.199967
5.632000	1.212851
5.633000	1.283067
5.634000	1.295307
5.635000	1.295951
5.636000	1.335568
5.637000	1.413515
5.638000	1.415126
5.639000	1.483732
5.640000	1.535267
5.641000	1.642202
5.642000	1.774905
5.643000	2.049652
5.644000	2.198782
5.645000	2.227449
5.646000	2.067045
5.647000	1.881519
5.648000	1.722404
5.649000	1.553304
5.650000	1.368100
5.651000	1.300460
5.652000	1.268895
5.653000	1.203510
5.654000	1.157128
5.655000	1.122342
5.656000	1.118477
5.657000	1.148110
5.658000	1.251502
5.659000	1.361658
5.660000	1.422856
5.661000	1.394190
5.662000	1.406429
5.663000	1.397089
5.664000	1.422534
5.665000	1.439283
5.666000	1.504990
5.667000	1.872822
5.668000	2.336639
5.669000	2.424571
5.670000	2.421672
5.671000	2.366916
5.672000	2.118581
5.673000	1.797774
5.674000	1.596787
5.675000	1.452489
5.676000	1.476646
5.677000	1.490496
5.678000	1.406107
5.679000	1.328805
5.680000	1.161638
5.681000	0.974501
5.682000	0.885603
5.683000	0.887857
5.684000	1.026680
5.685000	1.243449
5.686000	1.568443
5.687000	1.728202
5.688000	1.716284
5.689000	1.684719
5.690000	1.667648
5.691000	1.718539
5.692000	1.728524
5.693000	1.756546
5.694000	1.855751
5.695000	2.006814
5.696000	2.122446
5.697000	2.085727
5.698000	1.969451
5.699000	1.872500
5.700000	1.658629
5.701000	1.547829
5.702000	1.478901
5.703000	1.550406
5.704000	1.593244
5.705000	1.527537
5.706000	1.469882
5.707000	1.396122
5.708000	1.300138
5.709000	1.223802
5.710000	1.204154
5.711000	1.245382
5.712000	1.417380
5.713000	1.582937
5.714000	1.622877
5.715000	1.613858
5.716000	1.588091
5.717000	1.599686
5.718000	1.579716
5.719000	1.431553
5.720000	1.270183
5.721000	1.265352
5.722000	1.418347
5.723000	1.552982
5.724000	1.543319
5.725000	1.387104
5.726000	1.182252
5.727000	1.052125
5.728000	1.065009
5.729000	1.324939
5.730000	1.976859
5.731000	2.438099
5.732000	2.496076
5.733000	2.504128
5.734000	2.772434
5.735000	2.767280
5.736000	2.772434
5.737000	2.715745
5.738000	2.490922
5.739000	2.019697
5.740000	1.532690
5.741000	1.225412
5.742000	0.965482
5.743000	0.800570
5.744000	0.754188
5.745000	0.805079
5.746000	0.910404
5.747000	1.056313
5.748000	1.176776
5.749000	1.318497
5.750000	1.419635
5.751000	1.516263
5.752000	1.519484
5.753000	1.520451
5.754000	1.511754
5.755000	1.448946
5.756000	1.380662
5.757000	1.323651
5.758000	1.291119
5.759000	1.250213
5.760000	1.246348
5.761000	1.272116
5.762000	1.316243
5.763000	1.339112
5.764000	1.331703
5.765000	1.360692
5.766000	1.492428
5.767000	1.555237
5.768000	1.595499
5.769000	1.574563
5.770000	1.547185
5.771000	1.623843
5.772000	1.932088
5.773000	2.134685
5.774000	2.153689
5.775000	2.097966
5.776000	2.014866
5.777000	1.973316
5.778000	1.924679
5.779000	1.894725
5.780000	1.901167
5.781000	1.908253
5.782000	1.887961
5.783000	1.913084
5.784000	1.968162
5.785000	2.039345
5.786000	2.103764
5.787000	2.048364
5.788000	1.793587
5.789000	1.551694
5.790000	1.281779
5.791000	1.192881
5.792000	1.182574
5.793000	1.116544
5.794000	1.056313
5.795000	1.020238
5.796000	0.982553
5.797000	0.958074
5.798000	0.966448
5.799000	0.982553
5.800000	0.996081
5.801000	1.007032
5.802000	1.098829
5.803000	1.195457
5.804000	1.303359
5.805000	1.418347
5.806000	1.554915
5.807000	1.619012
5.808000	1.699213
5.809000	1.778771
5.810000	1.867991
5.811000	2.035802
5.812000	2.088948
5.813000	2.108596
5.814000	2.045465
5.815000	1.938852
5.816000	1.896335
5.817000	1.830950
5.818000	1.705333
5.819000	1.624487
5.820000	1.624809
5.821000	1.767819
5.822000	2.151756
5.823000	2.416518
5.824000	2.453237
5.825000	2.407822
5.826000	2.209089
5.827000	1.756546
5.828000	1.423822
5.829000	1.180641
5.830000	1.072739
5.831000	1.041174
5.832000	1.041174
5.833000	1.086267
5.834000	1.095286
5.835000	1.119765
5.836000	1.150042
5.837000	1.186761
5.838000	1.215427
5.839000	1.233787
5.840000	1.274693
5.841000	1.592600
5.842000	2.090880
5.843000	2.361440
5.844000	2.389462
5.845000	2.325365
5.846000	2.163674
5.847000	1.862837
5.848000	1.505312
5.849000	1.513687
5.850000	1.576495
5.851000	1.528503
5.852000	1.450556
5.853000	1.255045
5.854000	1.062755
5.855000	0.997369
5.856000	0.995759
5.857000	1.056957
5.858000	1.278880
5.859000	1.573274
5.860000	1.858650
5.861000	2.281561
5.862000	2.474496
5.863000	2.496076
5.864000	2.495110
5.865000	2.443574
5.866000	2.173015
5.867000	1.585836
5.868000	1.122986
5.869000	0.924254
5.870000	0.836644
5.871000	0.836322
5.872000	0.959362
5.873000	1.151008
5.874000	1.380662
5.875000	1.639626
5.876000	1.721116
5.877000	1.630929
5.878000	1.485665
5.879000	1.319786
5.880000	1.263419
5.881000	1.273404
5.882000	1.377441
5.883000	1.473425
5.884000	1.661528
5.885000	1.927256
5.886000	2.208767
5.887000	2.290257
5.888000	2.201037
5.889000	1.980402
5.890000	1.647034
5.891000	1.322363
5.892000	1.145855
5.893000	1.144244
5.894000	1.179675
5.895000	1.193525
5.896000	1.224768
5.897000	1.294663
5.898000	1.357471
5.899000	1.378729
5.900000	1.349741
5.901000	1.403208
5.902000	1.542675
5.903000	1.666037
5.904000	1.704689
5.905000	1.615147
5.906000	1.479867
5.907000	1.380984
5.908000	1.339756
5.909000	1.364557
5.910000	1.462796
5.911000	1.616435
5.912000	1.758156
5.913000	2.030327
5.914000	2.188153
5.915000	2.183966
5.916000	2.077674
5.917000	1.928545
5.918000	1.799707
5.919000	1.699213
5.920000	1.690517
5.921000	1.592600
5.922000	1.645423
5.923000	2.009712
5.924000	2.358863
5.925000	2.493499
5.926000	2.496720
5.927000	2.480937
5.928000	2.213276
5.929000	1.673768
5.930000	1.194813
5.931000	0.941325
5.932000	0.842764
5.933000	0.823439
5.934000	0.808622
5.935000	0.880771
5.936000	0.964838
5.937000	1.046650
5.938000	1.122020
5.939000	1.108492
5.940000	1.078215
5.941000	1.107204
5.942000	1.090133
5.943000	1.104627
5.944000	1.134260
5.945000	1.086590
5.946000	1.102050
5.947000	1.198356
5.948000	1.393545
5.949000	1.667004
5.950000	1.874111
5.951000	2.185576
5.952000	2.375612
5.953000	2.429080
5.954000	2.412009
5.955000	2.277373
5.956000	2.041600
5.957000	1.802928
5.958000	1.534301
5.959000	1.353606
5.960000	1.260843
5.961000	1.222191
5.962000	1.237974
5.963000	1.466339
5.964000	1.886994
5.965000	2.166251
5.966000	2.254505
5.967000	2.224550
5.968000	2.097966
5.969000	2.065113
5.970000	1.973316
5.971000	1.787789
5.972000	1.522383
5.973000	1.389680
5.974000	1.319464
5.975000	1.264064
5.976000	1.295307
5.977000	1.412549
5.978000	1.406751
5.979000	1.481155
5.980000	1.637371
5.981000	1.705333
5.982000	1.697281
5.983000	1.626742
5.984000	1.526893
5.985000	1.452167
5.986000	1.386137
5.987000	1.312700
5.988000	1.261809
5.989000	1.199967
5.990000	1.152297
5.991000	1.123630
5.992000	1.190948
5.993000	1.273726
5.994000	1.239584
5.995000	1.222191
5.996000	1.308835
5.997000	1.476324
5.998000	1.710486
5.999000	1.829017
6.000000	1.878620
6.001000	1.884740
6.002000	1.950447
6.003000	2.081540
6.004000	2.154655
6.005000	2.270931
6.006000	2.345657
6.007000	2.358219
6.008000	2.447440
6.009000	2.488990
6.010000	2.495754
6.011000	2.492533
6.012000	2.444863
6.013000	2.322789
6.014000	1.981690
6.015000	1.716606
6.016000	1.407718
6.017000	1.063721
6.018000	0.856936
6.019000	0.749035
6.020000	0.706196
6.021000	0.663036
6.022000	0.656594
6.023000	0.677530
6.024000	0.740016
6.025000	0.828270
6.026000	0.911370
6.027000	1.015085
6.028000	1.148110
6.029000	1.301104
6.030000	1.445725
6.031000	1.561357
6.032000	1.598075
6.033000	1.540743
6.034000	1.531402
6.035000	1.608705
6.036000	1.653154
6.037000	1.738509
6.038000	1.830628
6.039000	1.929189
6.040000	2.033547
6.041000	2.102798
6.042000	2.168183
6.043000	2.204258
6.044000	2.081218
6.045000	1.818066
6.046000	1.548473
6.047000	1.375186
6.048000	1.375830
6.049000	1.678277
6.050000	2.104408
6.051000	2.333740
6.052000	2.399447
6.053000	2.418129
6.054000	2.433589
6.055000	2.430691
6.056000	2.342114
6.057000	1.980402
6.058000	1.590023
6.059000	1.254723
6.060000	1.057279
6.061000	0.922321
6.062000	0.816675
6.063000	0.771581
6.064000	0.881093
6.065000	1.085945
6.066000	1.332348
6.067000	1.457964
6.068000	1.504024
6.069000	1.563933
6.070000	1.592278
6.071000	1.494361
6.072000	1.340722
6.073000	1.127173
6.074000	0.994148
6.075000	0.997692
6.076000	1.118155
6.077000	1.410616
6.078000	1.788433
6.079000	2.028394
6.080000	2.036768
6.081000	1.907608
6.082000	1.759767
6.083000	1.619978
6.084000	1.559746
6.085000	1.555559
6.086000	1.472137
6.087000	1.498226
6.088000	1.571020
6.089000	1.686974
6.090000	1.899234
6.091000	2.235823
6.092000	2.415230
6.093000	2.453237
6.094000	2.429402
6.095000	2.310549
6.096000	1.915339
6.097000	1.498548
6.098000	1.303359
6.099000	1.281457
6.100000	1.249891
6.101000	1.221547
6.102000	1.201255
6.103000	1.151008
6.104000	1.038597
6.105000	0.958074
6.106000	0.921999
6.107000	0.963872
6.108000	1.174521
6.109000	1.449912
6.110000	1.594532
6.111000	1.702112
6.112000	1.918560
6.113000	2.028072
6.114000	2.109562
6.115000	2.148535
6.116000	2.150146
6.117000	2.222939
6.118000	2.131464
6.119000	1.959788
6.120000	1.772651
6.121000	1.472137
6.122000	1.328805
6.123000	1.256333
6.124000	1.171622
6.125000	1.168724
6.126000	1.148754
6.127000	1.152297
6.128000	1.221225
6.129000	1.298850
6.130000	1.381306
6.131000	1.407396
6.132000	1.361014
6.133000	1.322363
6.134000	1.328482
6.135000	1.362947
6.136000	1.371965
6.137000	1.430586
6.138000	1.557814
6.139000	1.708232
6.140000	1.890215
6.141000	1.890860
6.142000	1.822253
6.143000	1.814845
6.144000	1.728202
6.145000	1.571020
6.146000	1.513687
6.147000	1.516908
6.148000	1.477612
6.149000	1.437672
6.150000	1.542031
6.151000	1.681176
6.152000	1.793587
6.153000	1.961720
6.154000	1.971061
6.155000	1.856395
6.156000	1.667326
6.157000	1.465373
6.158000	1.341688
6.159000	1.326228
6.160000	1.481155
6.161000	1.787789
6.162000	2.097000
6.163000	2.240010
6.164000	2.223261
6.165000	2.214243
6.166000	2.087982
6.167000	1.918882
6.168000	1.710486
6.169000	1.529791
6.170000	1.378407
6.171000	1.198678
6.172000	1.093354
6.173000	1.060822
6.174000	1.129428
6.175000	1.226056
6.176000	1.336213
6.177000	1.469238
6.178000	1.588091
6.179000	1.664105
6.180000	1.762666
6.181000	1.817100
6.182000	1.880230
6.183000	2.078319
6.184000	2.118258
6.185000	2.001016
6.186000	1.865092
6.187000	1.612248
6.188000	1.482444
6.189000	1.474391
6.190000	1.375830
6.191000	1.264386
6.192000	1.236686
6.193000	1.240873
6.194000	1.232498
6.195000	1.167757
6.196000	1.131039
6.197000	1.135548
6.198000	1.215105
6.199000	1.297561
6.200000	1.365845
6.201000	1.412871
6.202000	1.465373
6.203000	1.480511
6.204000	1.454743
6.205000	1.429942
6.206000	1.414482
6.207000	1.503702
6.208000	1.594210
6.209000	1.711453
6.210000	2.018087
6.211000	2.257726
6.212000	2.370781
6.213000	2.344047
6.214000	2.243231
6.215000	2.026461
6.216000	1.751715
6.217000	1.557814
6.218000	1.345553
6.219000	1.203188
6.220000	1.153907
6.221000	1.096897
6.222000	1.056635
6.223000	1.085623
6.224000	1.147787
6.225000	1.199323
6.226000	1.253757
6.227000	1.297239
6.228000	1.379695
6.229000	1.367778
6.230000	1.315277
6.231000	1.286288
6.232000	1.333314
6.233000	1.467305
6.234000	1.739153
6.235000	2.065757
6.236000	2.260302
6.237000	2.299920
6.238000	2.246452
6.239000	2.008424
6.240000	1.788755
6.241000	1.712419
6.242000	1.630929
6.243000	1.513043
6.244000	1.484376
6.245000	1.429620
6.246000	1.411905
6.247000	1.384527
6.248000	1.370033
6.249000	1.453455
6.250000	1.700179
6.251000	1.929511
6.252000	2.229381
6.253000	2.341792
6.254000	2.356931
6.255000	2.307650
6.256000	2.341148
6.257000	2.419095
6.258000	2.444541
6.259000	2.422638
6.260000	2.165284
6.261000	1.679888
6.262000	1.203510
6.263000	0.890756
6.264000	0.756443
6.265000	0.704908
6.266000	0.718758
6.267000	0.802180
6.268000	0.883670
6.269000	0.921033
6.270000	0.927153
6.271000	0.945190
6.272000	1.000268
6.273000	1.064365
6.274000	1.176132
6.275000	1.303037
6.276000	1.424144
6.277000	1.516908
6.278000	1.609027
6.279000	1.779737
6.280000	1.872822
6.281000	1.925324
6.282000	1.952702
6.283000	1.991353
6.284000	1.998761
6.285000	1.944971
6.286000	1.828695
6.287000	1.855107
6.288000	1.884096
6.289000	1.996184
