LabVIEW Measurement	
Writer_Version	2
Reader_Version	2
Separator	Tab
Decimal_Separator	.
Multi_Headings	Yes
X_Columns	One
Time_Pref	Relative
Operator	bjl40
Description	Time Domain Data
Date	2024/02/29
Time	12:00:57.6421046257019042969
***End_of_Header***	
	
Channels	1	
Samples	10000	
Date	2024/02/29	
Time	12:00:57.6421046257019042969	
X_Dimension	Time	
X0	0.0000000000000000E+0	
Delta_X	0.001000	
***End_of_Header***		
X_Value	Untitled	Comment
0.000000	1.535911	Tare Values:0.000000, 0.000000, 0.000000, 0.000000\0D\0A
0.001000	1.533657
0.002000	1.538488
0.003000	1.537522
0.004000	1.542675
0.005000	1.550406
0.006000	1.550406
0.007000	1.557492
0.008000	1.567477
0.009000	1.577461
0.010000	1.584225
0.011000	1.584870
0.012000	1.579394
0.013000	1.576817
0.014000	1.569087
0.015000	1.558458
0.016000	1.550083
0.017000	1.540421
0.018000	1.529791
0.019000	1.526248
0.020000	1.530114
0.021000	1.540098
0.022000	1.542997
0.023000	1.552016
0.024000	1.562323
0.025000	1.571342
0.026000	1.584225
0.027000	1.583903
0.028000	1.587124
0.029000	1.578428
0.030000	1.565222
0.031000	1.551050
0.032000	1.551372
0.033000	1.545252
0.034000	1.541709
0.035000	1.534945
0.036000	1.536233
0.037000	1.538488
0.038000	1.545896
0.039000	1.549761
0.040000	1.558458
0.041000	1.569409
0.042000	1.582937
0.043000	1.586158
0.044000	1.589701
0.045000	1.590345
0.046000	1.585836
0.047000	1.578750
0.048000	1.569087
0.049000	1.563933
0.050000	1.555559
0.051000	1.554271
0.052000	1.548151
0.053000	1.545252
0.054000	1.546540
0.055000	1.551050
0.056000	1.560068
0.057000	1.564900
0.058000	1.572952
0.059000	1.581327
0.060000	1.593888
0.061000	1.594855
0.062000	1.593566
0.063000	1.588413
0.064000	1.572952
0.065000	1.562645
0.066000	1.552338
0.067000	1.552338
0.068000	1.547185
0.069000	1.546540
0.070000	1.547185
0.071000	1.554593
0.072000	1.560390
0.073000	1.561035
0.074000	1.574563
0.075000	1.583259
0.076000	1.590023
0.077000	1.595821
0.078000	1.599042
0.079000	1.593244
0.080000	1.586802
0.081000	1.576817
0.082000	1.571986
0.083000	1.562967
0.084000	1.556525
0.085000	1.557492
0.086000	1.555559
0.087000	1.557169
0.088000	1.557492
0.089000	1.561679
0.090000	1.569087
0.091000	1.576495
0.092000	1.584548
0.093000	1.591312
0.094000	1.590667
0.095000	1.588413
0.096000	1.586158
0.097000	1.582937
0.098000	1.574240
0.099000	1.565544
0.100000	1.562323
0.101000	1.558136
0.102000	1.558136
0.103000	1.546862
0.104000	1.547185
0.105000	1.551694
0.106000	1.557814
0.107000	1.571020
0.108000	1.575529
0.109000	1.585514
0.110000	1.586480
0.111000	1.591956
0.112000	1.589057
0.113000	1.584870
0.114000	1.577139
0.115000	1.571020
0.116000	1.564578
0.117000	1.555237
0.118000	1.549761
0.119000	1.546862
0.120000	1.544608
0.121000	1.547507
0.122000	1.554271
0.123000	1.567154
0.124000	1.573274
0.125000	1.583903
0.126000	1.591312
0.127000	1.596143
0.128000	1.596465
0.129000	1.591634
0.130000	1.580682
0.131000	1.578750
0.132000	1.568121
0.133000	1.560068
0.134000	1.553304
0.135000	1.555237
0.136000	1.551372
0.137000	1.554593
0.138000	1.557814
0.139000	1.564578
0.140000	1.569409
0.141000	1.575851
0.142000	1.587124
0.143000	1.594210
0.144000	1.592922
0.145000	1.594210
0.146000	1.588413
0.147000	1.580682
0.148000	1.574885
0.149000	1.564256
0.150000	1.560390
0.151000	1.557492
0.152000	1.556525
0.153000	1.555237
0.154000	1.555237
0.155000	1.559102
0.156000	1.563289
0.157000	1.564900
0.158000	1.574240
0.159000	1.584225
0.160000	1.598075
0.161000	1.595499
0.162000	1.595499
0.163000	1.585514
0.164000	1.573274
0.165000	1.570053
0.166000	1.555237
0.167000	1.545574
0.168000	1.545896
0.169000	1.547185
0.170000	1.551050
0.171000	1.551050
0.172000	1.559424
0.173000	1.559102
0.174000	1.570375
0.175000	1.580038
0.176000	1.590023
0.177000	1.597753
0.178000	1.596787
0.179000	1.591312
0.180000	1.585192
0.181000	1.573596
0.182000	1.559424
0.183000	1.549439
0.184000	1.542997
0.185000	1.544608
0.186000	1.552016
0.187000	1.550083
0.188000	1.556525
0.189000	1.561035
0.190000	1.571020
0.191000	1.576817
0.192000	1.587446
0.193000	1.586802
0.194000	1.587768
0.195000	1.586158
0.196000	1.582937
0.197000	1.577461
0.198000	1.566510
0.199000	1.559746
0.200000	1.551694
0.201000	1.550728
0.202000	1.547829
0.203000	1.546540
0.204000	1.551694
0.205000	1.556203
0.206000	1.565544
0.207000	1.571664
0.208000	1.579394
0.209000	1.584225
0.210000	1.592922
0.211000	1.595499
0.212000	1.590667
0.213000	1.586802
0.214000	1.574885
0.215000	1.571020
0.216000	1.565866
0.217000	1.560068
0.218000	1.554271
0.219000	1.551050
0.220000	1.543319
0.221000	1.553626
0.222000	1.549761
0.223000	1.563933
0.224000	1.570375
0.225000	1.579394
0.226000	1.586480
0.227000	1.591956
0.228000	1.590023
0.229000	1.584870
0.230000	1.578428
0.231000	1.569087
0.232000	1.564900
0.233000	1.558136
0.234000	1.545252
0.235000	1.548473
0.236000	1.552982
0.237000	1.557492
0.238000	1.561679
0.239000	1.571020
0.240000	1.581327
0.241000	1.584225
0.242000	1.592278
0.243000	1.596143
0.244000	1.597753
0.245000	1.592278
0.246000	1.585192
0.247000	1.580682
0.248000	1.570375
0.249000	1.560713
0.250000	1.557169
0.251000	1.547507
0.252000	1.546862
0.253000	1.548151
0.254000	1.552016
0.255000	1.555881
0.256000	1.565222
0.257000	1.573596
0.258000	1.579072
0.259000	1.591634
0.260000	1.590989
0.261000	1.595499
0.262000	1.590345
0.263000	1.579072
0.264000	1.575207
0.265000	1.571664
0.266000	1.562001
0.267000	1.557814
0.268000	1.549761
0.269000	1.549761
0.270000	1.546218
0.271000	1.556847
0.272000	1.566510
0.273000	1.575529
0.274000	1.582615
0.275000	1.585514
0.276000	1.586802
0.277000	1.582615
0.278000	1.588091
0.279000	1.582293
0.280000	1.580682
0.281000	1.568443
0.282000	1.558458
0.283000	1.559424
0.284000	1.546218
0.285000	1.543964
0.286000	1.546218
0.287000	1.546540
0.288000	1.547507
0.289000	1.552016
0.290000	1.559746
0.291000	1.571986
0.292000	1.582937
0.293000	1.586158
0.294000	1.589701
0.295000	1.586802
0.296000	1.585192
0.297000	1.574885
0.298000	1.562645
0.299000	1.557492
0.300000	1.549117
0.301000	1.543964
0.302000	1.545252
0.303000	1.546862
0.304000	1.550728
0.305000	1.560068
0.306000	1.561679
0.307000	1.573918
0.308000	1.582615
0.309000	1.583581
0.310000	1.589057
0.311000	1.590989
0.312000	1.589057
0.313000	1.579716
0.314000	1.575529
0.315000	1.566510
0.316000	1.555559
0.317000	1.551050
0.318000	1.545574
0.319000	1.551050
0.320000	1.547185
0.321000	1.552016
0.322000	1.557814
0.323000	1.569087
0.324000	1.571664
0.325000	1.576817
0.326000	1.589379
0.327000	1.590989
0.328000	1.591312
0.329000	1.587768
0.330000	1.578750
0.331000	1.570697
0.332000	1.564578
0.333000	1.555881
0.334000	1.552982
0.335000	1.553949
0.336000	1.551050
0.337000	1.553304
0.338000	1.558136
0.339000	1.561679
0.340000	1.573274
0.341000	1.584870
0.342000	1.591634
0.343000	1.596465
0.344000	1.593888
0.345000	1.589057
0.346000	1.581004
0.347000	1.576817
0.348000	1.569087
0.349000	1.559424
0.350000	1.554271
0.351000	1.551694
0.352000	1.547829
0.353000	1.556847
0.354000	1.558458
0.355000	1.557169
0.356000	1.559746
0.357000	1.569731
0.358000	1.579716
0.359000	1.587446
0.360000	1.592600
0.361000	1.597753
0.362000	1.591634
0.363000	1.586480
0.364000	1.575207
0.365000	1.569731
0.366000	1.561679
0.367000	1.553626
0.368000	1.544930
0.369000	1.544930
0.370000	1.550083
0.371000	1.555881
0.372000	1.562323
0.373000	1.572952
0.374000	1.575529
0.375000	1.585514
0.376000	1.586480
0.377000	1.587768
0.378000	1.589701
0.379000	1.584225
0.380000	1.580360
0.381000	1.571020
0.382000	1.562967
0.383000	1.559102
0.384000	1.546218
0.385000	1.547507
0.386000	1.548473
0.387000	1.552016
0.388000	1.554915
0.389000	1.560713
0.390000	1.566832
0.391000	1.574240
0.392000	1.584225
0.393000	1.587446
0.394000	1.590023
0.395000	1.590023
0.396000	1.584548
0.397000	1.573918
0.398000	1.567477
0.399000	1.564578
0.400000	1.558458
0.401000	1.546218
0.402000	1.545252
0.403000	1.547185
0.404000	1.552660
0.405000	1.557492
0.406000	1.568121
0.407000	1.573918
0.408000	1.579716
0.409000	1.585514
0.410000	1.591312
0.411000	1.595177
0.412000	1.581004
0.413000	1.578428
0.414000	1.571664
0.415000	1.562645
0.416000	1.554593
0.417000	1.550728
0.418000	1.548473
0.419000	1.547507
0.420000	1.551694
0.421000	1.547507
0.422000	1.556847
0.423000	1.568121
0.424000	1.572308
0.425000	1.584225
0.426000	1.588091
0.427000	1.595177
0.428000	1.594532
0.429000	1.586158
0.430000	1.576495
0.431000	1.571664
0.432000	1.564900
0.433000	1.553626
0.434000	1.547829
0.435000	1.546862
0.436000	1.541065
0.437000	1.554915
0.438000	1.546862
0.439000	1.559102
0.440000	1.568443
0.441000	1.578750
0.442000	1.592278
0.443000	1.595177
0.444000	1.602907
0.445000	1.595177
0.446000	1.588091
0.447000	1.583259
0.448000	1.571342
0.449000	1.567799
0.450000	1.558780
0.451000	1.554593
0.452000	1.560068
0.453000	1.552016
0.454000	1.551372
0.455000	1.554593
0.456000	1.562001
0.457000	1.572952
0.458000	1.578106
0.459000	1.587768
0.460000	1.580682
0.461000	1.589701
0.462000	1.584225
0.463000	1.579716
0.464000	1.571020
0.465000	1.564900
0.466000	1.556203
0.467000	1.551050
0.468000	1.545896
0.469000	1.543642
0.470000	1.548795
0.471000	1.553949
0.472000	1.556203
0.473000	1.562645
0.474000	1.574240
0.475000	1.584548
0.476000	1.590023
0.477000	1.595499
0.478000	1.589701
0.479000	1.590989
0.480000	1.586480
0.481000	1.569409
0.482000	1.563289
0.483000	1.557814
0.484000	1.552660
0.485000	1.546540
0.486000	1.543642
0.487000	1.545896
0.488000	1.552016
0.489000	1.558136
0.490000	1.568121
0.491000	1.572630
0.492000	1.582937
0.493000	1.587124
0.494000	1.590989
0.495000	1.587768
0.496000	1.576817
0.497000	1.576173
0.498000	1.565544
0.499000	1.561679
0.500000	1.554915
0.501000	1.552660
0.502000	1.543964
0.503000	1.543319
0.504000	1.545252
0.505000	1.555559
0.506000	1.562967
0.507000	1.565866
0.508000	1.576495
0.509000	1.587124
0.510000	1.592278
0.511000	1.598075
0.512000	1.593244
0.513000	1.588413
0.514000	1.577784
0.515000	1.569731
0.516000	1.556847
0.517000	1.546862
0.518000	1.544608
0.519000	1.545574
0.520000	1.543319
0.521000	1.546218
0.522000	1.549439
0.523000	1.555559
0.524000	1.567477
0.525000	1.574885
0.526000	1.588735
0.527000	1.585192
0.528000	1.581004
0.529000	1.584225
0.530000	1.575529
0.531000	1.559746
0.532000	1.556525
0.533000	1.544930
0.534000	1.541387
0.535000	1.536878
0.536000	1.536233
0.537000	1.545574
0.538000	1.543319
0.539000	1.553626
0.540000	1.558136
0.541000	1.578750
0.542000	1.593566
0.543000	1.593888
0.544000	1.591312
0.545000	1.592278
0.546000	1.585514
0.547000	1.576817
0.548000	1.568121
0.549000	1.563289
0.550000	1.551694
0.551000	1.549439
0.552000	1.547185
0.553000	1.548151
0.554000	1.552982
0.555000	1.557169
0.556000	1.566188
0.557000	1.571020
0.558000	1.581004
0.559000	1.585192
0.560000	1.588091
0.561000	1.596143
0.562000	1.591956
0.563000	1.579394
0.564000	1.572308
0.565000	1.561679
0.566000	1.555237
0.567000	1.547185
0.568000	1.545574
0.569000	1.544930
0.570000	1.548473
0.571000	1.546862
0.572000	1.556847
0.573000	1.561679
0.574000	1.571664
0.575000	1.579716
0.576000	1.594855
0.577000	1.587446
0.578000	1.589057
0.579000	1.582293
0.580000	1.579072
0.581000	1.565544
0.582000	1.561679
0.583000	1.553304
0.584000	1.547185
0.585000	1.543964
0.586000	1.541709
0.587000	1.546218
0.588000	1.551372
0.589000	1.557169
0.590000	1.567477
0.591000	1.591312
0.592000	1.599364
0.593000	1.600008
0.594000	1.600330
0.595000	1.591634
0.596000	1.588735
0.597000	1.581649
0.598000	1.569409
0.599000	1.567477
0.600000	1.556847
0.601000	1.548795
0.602000	1.542675
0.603000	1.549439
0.604000	1.555237
0.605000	1.562001
0.606000	1.567799
0.607000	1.568765
0.608000	1.575529
0.609000	1.589701
0.610000	1.598075
0.611000	1.612248
0.612000	1.610959
0.613000	1.595177
0.614000	1.572630
0.615000	1.559102
0.616000	1.551694
0.617000	1.547829
0.618000	1.543642
0.619000	1.544930
0.620000	1.547507
0.621000	1.552016
0.622000	1.558458
0.623000	1.567154
0.624000	1.571986
0.625000	1.579716
0.626000	1.594210
0.627000	1.595821
0.628000	1.591956
0.629000	1.585192
0.630000	1.575529
0.631000	1.568443
0.632000	1.562001
0.633000	1.553304
0.634000	1.550406
0.635000	1.546218
0.636000	1.561035
0.637000	1.550728
0.638000	1.553626
0.639000	1.559746
0.640000	1.568765
0.641000	1.569409
0.642000	1.580682
0.643000	1.594210
0.644000	1.612892
0.645000	1.598720
0.646000	1.587446
0.647000	1.576495
0.648000	1.566188
0.649000	1.559746
0.650000	1.552660
0.651000	1.547507
0.652000	1.549761
0.653000	1.555237
0.654000	1.554271
0.655000	1.563611
0.656000	1.564578
0.657000	1.570697
0.658000	1.578428
0.659000	1.588413
0.660000	1.592922
0.661000	1.591956
0.662000	1.587446
0.663000	1.582615
0.664000	1.587124
0.665000	1.574885
0.666000	1.563611
0.667000	1.554271
0.668000	1.550728
0.669000	1.546862
0.670000	1.547829
0.671000	1.548795
0.672000	1.557492
0.673000	1.562967
0.674000	1.575207
0.675000	1.584870
0.676000	1.591634
0.677000	1.593244
0.678000	1.594855
0.679000	1.586802
0.680000	1.579716
0.681000	1.571020
0.682000	1.565544
0.683000	1.557169
0.684000	1.555237
0.685000	1.542031
0.686000	1.551372
0.687000	1.548795
0.688000	1.557492
0.689000	1.563933
0.690000	1.570053
0.691000	1.573274
0.692000	1.585192
0.693000	1.594210
0.694000	1.587768
0.695000	1.588091
0.696000	1.583581
0.697000	1.585192
0.698000	1.580682
0.699000	1.567154
0.700000	1.555237
0.701000	1.549439
0.702000	1.544608
0.703000	1.548473
0.704000	1.553626
0.705000	1.557814
0.706000	1.559102
0.707000	1.571342
0.708000	1.579072
0.709000	1.588735
0.710000	1.591634
0.711000	1.592922
0.712000	1.589057
0.713000	1.582615
0.714000	1.572308
0.715000	1.564900
0.716000	1.558136
0.717000	1.555881
0.718000	1.560713
0.719000	1.555559
0.720000	1.550406
0.721000	1.551050
0.722000	1.557814
0.723000	1.565222
0.724000	1.572308
0.725000	1.579716
0.726000	1.586802
0.727000	1.585514
0.728000	1.582937
0.729000	1.576817
0.730000	1.574240
0.731000	1.565222
0.732000	1.561357
0.733000	1.552016
0.734000	1.548795
0.735000	1.541387
0.736000	1.543964
0.737000	1.551372
0.738000	1.564900
0.739000	1.561035
0.740000	1.570053
0.741000	1.578750
0.742000	1.583903
0.743000	1.591956
0.744000	1.600974
0.745000	1.595499
0.746000	1.587446
0.747000	1.577461
0.748000	1.569409
0.749000	1.563611
0.750000	1.556203
0.751000	1.545574
0.752000	1.540098
0.753000	1.542997
0.754000	1.550083
0.755000	1.559102
0.756000	1.562323
0.757000	1.573274
0.758000	1.584548
0.759000	1.594532
0.760000	1.596465
0.761000	1.596465
0.762000	1.598720
0.763000	1.583259
0.764000	1.608705
0.765000	1.611603
0.766000	1.580360
0.767000	1.565866
0.768000	1.555237
0.769000	1.547829
0.770000	1.550406
0.771000	1.551050
0.772000	1.555559
0.773000	1.559746
0.774000	1.563289
0.775000	1.574240
0.776000	1.579394
0.777000	1.583903
0.778000	1.585514
0.779000	1.577784
0.780000	1.567154
0.781000	1.562645
0.782000	1.555237
0.783000	1.548795
0.784000	1.546862
0.785000	1.544930
0.786000	1.542675
0.787000	1.546540
0.788000	1.553949
0.789000	1.562001
0.790000	1.581004
0.791000	1.622555
0.792000	1.610959
0.793000	1.598075
0.794000	1.594855
0.795000	1.587124
0.796000	1.583581
0.797000	1.570375
0.798000	1.561679
0.799000	1.549117
0.800000	1.545574
0.801000	1.546540
0.802000	1.542675
0.803000	1.544930
0.804000	1.549117
0.805000	1.557169
0.806000	1.560713
0.807000	1.572630
0.808000	1.577139
0.809000	1.586802
0.810000	1.589057
0.811000	1.590023
0.812000	1.580360
0.813000	1.573274
0.814000	1.581971
0.815000	1.604517
0.816000	1.579716
0.817000	1.559746
0.818000	1.545252
0.819000	1.539776
0.820000	1.547829
0.821000	1.547829
0.822000	1.556203
0.823000	1.564256
0.824000	1.570375
0.825000	1.577461
0.826000	1.592600
0.827000	1.589701
0.828000	1.589057
0.829000	1.581004
0.830000	1.577461
0.831000	1.568765
0.832000	1.558780
0.833000	1.553304
0.834000	1.546862
0.835000	1.545574
0.836000	1.549117
0.837000	1.559102
0.838000	1.565222
0.839000	1.564900
0.840000	1.568765
0.841000	1.581327
0.842000	1.588091
0.843000	1.592600
0.844000	1.594855
0.845000	1.590023
0.846000	1.587124
0.847000	1.573274
0.848000	1.560713
0.849000	1.558136
0.850000	1.549439
0.851000	1.549117
0.852000	1.544930
0.853000	1.547829
0.854000	1.550406
0.855000	1.558136
0.856000	1.565222
0.857000	1.577784
0.858000	1.584870
0.859000	1.591312
0.860000	1.598075
0.861000	1.593244
0.862000	1.590989
0.863000	1.581004
0.864000	1.571342
0.865000	1.564256
0.866000	1.561035
0.867000	1.547829
0.868000	1.547507
0.869000	1.544930
0.870000	1.546862
0.871000	1.553626
0.872000	1.560068
0.873000	1.567477
0.874000	1.575851
0.875000	1.589057
0.876000	1.593566
0.877000	1.591956
0.878000	1.590989
0.879000	1.584225
0.880000	1.575207
0.881000	1.569087
0.882000	1.562323
0.883000	1.554271
0.884000	1.561035
0.885000	1.562001
0.886000	1.554271
0.887000	1.552338
0.888000	1.550728
0.889000	1.557169
0.890000	1.570053
0.891000	1.576173
0.892000	1.585514
0.893000	1.590023
0.894000	1.591634
0.895000	1.587768
0.896000	1.577461
0.897000	1.571664
0.898000	1.562001
0.899000	1.557492
0.900000	1.550406
0.901000	1.548473
0.902000	1.548473
0.903000	1.548151
0.904000	1.573274
0.905000	1.579716
0.906000	1.575851
0.907000	1.573596
0.908000	1.579716
0.909000	1.587768
0.910000	1.592278
0.911000	1.588735
0.912000	1.581971
0.913000	1.576495
0.914000	1.564256
0.915000	1.568121
0.916000	1.558136
0.917000	1.545574
0.918000	1.546862
0.919000	1.542353
0.920000	1.546218
0.921000	1.551372
0.922000	1.557814
0.923000	1.566832
0.924000	1.574563
0.925000	1.582615
0.926000	1.587768
0.927000	1.588413
0.928000	1.590667
0.929000	1.580682
0.930000	1.579394
0.931000	1.577139
0.932000	1.565222
0.933000	1.554915
0.934000	1.551050
0.935000	1.554915
0.936000	1.549761
0.937000	1.553304
0.938000	1.552982
0.939000	1.557492
0.940000	1.564900
0.941000	1.578750
0.942000	1.584548
0.943000	1.590989
0.944000	1.589379
0.945000	1.582293
0.946000	1.581327
0.947000	1.570375
0.948000	1.564256
0.949000	1.557492
0.950000	1.556525
0.951000	1.556847
0.952000	1.550406
0.953000	1.549761
0.954000	1.554593
0.955000	1.561357
0.956000	1.569731
0.957000	1.579394
0.958000	1.590667
0.959000	1.594532
0.960000	1.600008
0.961000	1.595177
0.962000	1.576495
0.963000	1.571020
0.964000	1.563933
0.965000	1.559746
0.966000	1.548795
0.967000	1.548795
0.968000	1.549117
0.969000	1.545574
0.970000	1.550083
0.971000	1.557814
0.972000	1.562001
0.973000	1.566188
0.974000	1.576495
0.975000	1.586802
0.976000	1.601619
0.977000	1.606450
0.978000	1.592600
0.979000	1.585192
0.980000	1.576495
0.981000	1.568443
0.982000	1.554915
0.983000	1.552982
0.984000	1.546540
0.985000	1.545252
0.986000	1.545896
0.987000	1.547829
0.988000	1.553304
0.989000	1.559746
0.990000	1.562645
0.991000	1.576173
0.992000	1.579072
0.993000	1.584225
0.994000	1.589057
0.995000	1.586480
0.996000	1.586480
0.997000	1.585192
0.998000	1.564900
0.999000	1.556203
1.000000	1.544608
1.001000	1.544608
1.002000	1.546218
1.003000	1.546540
1.004000	1.550406
1.005000	1.558136
1.006000	1.566510
1.007000	1.573918
1.008000	1.576817
1.009000	1.584548
1.010000	1.586802
1.011000	1.585836
1.012000	1.581971
1.013000	1.574240
1.014000	1.564256
1.015000	1.559102
1.016000	1.552660
1.017000	1.547829
1.018000	1.546218
1.019000	1.545252
1.020000	1.550406
1.021000	1.555237
1.022000	1.580682
1.023000	1.622877
1.024000	1.603551
1.025000	1.595821
1.026000	1.590989
1.027000	1.584548
1.028000	1.576817
1.029000	1.577139
1.030000	1.567154
1.031000	1.563289
1.032000	1.560068
1.033000	1.547185
1.034000	1.543964
1.035000	1.541709
1.036000	1.542997
1.037000	1.544286
1.038000	1.551372
1.039000	1.559102
1.040000	1.563611
1.041000	1.574563
1.042000	1.586480
1.043000	1.630929
1.044000	1.624487
1.045000	1.597109
1.046000	1.586480
1.047000	1.574240
1.048000	1.559746
1.049000	1.549117
1.050000	1.540421
1.051000	1.537522
1.052000	1.536233
1.053000	1.541065
1.054000	1.549761
1.055000	1.554271
1.056000	1.562001
1.057000	1.569409
1.058000	1.578106
1.059000	1.586802
1.060000	1.589057
1.061000	1.590989
1.062000	1.585836
1.063000	1.578750
1.064000	1.568765
1.065000	1.564256
1.066000	1.551050
1.067000	1.548795
1.068000	1.544930
1.069000	1.544608
1.070000	1.547829
1.071000	1.554915
1.072000	1.558136
1.073000	1.567154
1.074000	1.580682
1.075000	1.588413
1.076000	1.592600
1.077000	1.591312
1.078000	1.591956
1.079000	1.585514
1.080000	1.578428
1.081000	1.569409
1.082000	1.566188
1.083000	1.555237
1.084000	1.550083
1.085000	1.547829
1.086000	1.547185
1.087000	1.554271
1.088000	1.562323
1.089000	1.567477
1.090000	1.571664
1.091000	1.581649
1.092000	1.591956
1.093000	1.597109
1.094000	1.596465
1.095000	1.590345
1.096000	1.583581
1.097000	1.579394
1.098000	1.566832
1.099000	1.556203
1.100000	1.547829
1.101000	1.547507
1.102000	1.548151
1.103000	1.551372
1.104000	1.554271
1.105000	1.559102
1.106000	1.567477
1.107000	1.573596
1.108000	1.582615
1.109000	1.590345
1.110000	1.593566
1.111000	1.590667
1.112000	1.591956
1.113000	1.578750
1.114000	1.573596
1.115000	1.566188
1.116000	1.559746
1.117000	1.550406
1.118000	1.549761
1.119000	1.551050
1.120000	1.551050
1.121000	1.553304
1.122000	1.560390
1.123000	1.571986
1.124000	1.576173
1.125000	1.586802
1.126000	1.594210
1.127000	1.591956
1.128000	1.597431
1.129000	1.586158
1.130000	1.581649
1.131000	1.571664
1.132000	1.563611
1.133000	1.557814
1.134000	1.554915
1.135000	1.552338
1.136000	1.552016
1.137000	1.557169
1.138000	1.561035
1.139000	1.565544
1.140000	1.575851
1.141000	1.584225
1.142000	1.585836
1.143000	1.590345
1.144000	1.592922
1.145000	1.585836
1.146000	1.579716
1.147000	1.572952
1.148000	1.567477
1.149000	1.562001
1.150000	1.553304
1.151000	1.549761
1.152000	1.550083
1.153000	1.553626
1.154000	1.556203
1.155000	1.562323
1.156000	1.567799
1.157000	1.574563
1.158000	1.584870
1.159000	1.591956
1.160000	1.597753
1.161000	1.597753
1.162000	1.593244
1.163000	1.579394
1.164000	1.571664
1.165000	1.563289
1.166000	1.557492
1.167000	1.547829
1.168000	1.545574
1.169000	1.541387
1.170000	1.549117
1.171000	1.553626
1.172000	1.562323
1.173000	1.570375
1.174000	1.580360
1.175000	1.587768
1.176000	1.590667
1.177000	1.592600
1.178000	1.584870
1.179000	1.577784
1.180000	1.576817
1.181000	1.563289
1.182000	1.558458
1.183000	1.550728
1.184000	1.549439
1.185000	1.546218
1.186000	1.545252
1.187000	1.550083
1.188000	1.552982
1.189000	1.561357
1.190000	1.566510
1.191000	1.574885
1.192000	1.584870
1.193000	1.589701
1.194000	1.589057
1.195000	1.588735
1.196000	1.581971
1.197000	1.570053
1.198000	1.560713
1.199000	1.551694
1.200000	1.551372
1.201000	1.548473
1.202000	1.551050
1.203000	1.556847
1.204000	1.560390
1.205000	1.564256
1.206000	1.568765
1.207000	1.580682
1.208000	1.586802
1.209000	1.589379
1.210000	1.588413
1.211000	1.585836
1.212000	1.588735
1.213000	1.576817
1.214000	1.569731
1.215000	1.562001
1.216000	1.552982
1.217000	1.545896
1.218000	1.549761
1.219000	1.544286
1.220000	1.547829
1.221000	1.551372
1.222000	1.558136
1.223000	1.565544
1.224000	1.569409
1.225000	1.576817
1.226000	1.581649
1.227000	1.582615
1.228000	1.577461
1.229000	1.574563
1.230000	1.565544
1.231000	1.561679
1.232000	1.552660
1.233000	1.547829
1.234000	1.542997
1.235000	1.542675
1.236000	1.546540
1.237000	1.545252
1.238000	1.552660
1.239000	1.560068
1.240000	1.568121
1.241000	1.581649
1.242000	1.590345
1.243000	1.596143
1.244000	1.598720
1.245000	1.591312
1.246000	1.582937
1.247000	1.573596
1.248000	1.566188
1.249000	1.561679
1.250000	1.561679
1.251000	1.566188
1.252000	1.562001
1.253000	1.565544
1.254000	1.564256
1.255000	1.571986
1.256000	1.575851
1.257000	1.583581
1.258000	1.591634
1.259000	1.602907
1.260000	1.604517
1.261000	1.600974
1.262000	1.595499
1.263000	1.588413
1.264000	1.582293
1.265000	1.573274
1.266000	1.564256
1.267000	1.562323
1.268000	1.558780
1.269000	1.554593
1.270000	1.558136
1.271000	1.558780
1.272000	1.564256
1.273000	1.574563
1.274000	1.578750
1.275000	1.590023
1.276000	1.593566
1.277000	1.597431
1.278000	1.594532
1.279000	1.586802
1.280000	1.579716
1.281000	1.567477
1.282000	1.558780
1.283000	1.551694
1.284000	1.548795
1.285000	1.549761
1.286000	1.552660
1.287000	1.554915
1.288000	1.559102
1.289000	1.567154
1.290000	1.579394
1.291000	1.583581
1.292000	1.595499
1.293000	1.604517
1.294000	1.600974
1.295000	1.592278
1.296000	1.583259
1.297000	1.571986
1.298000	1.562645
1.299000	1.553949
1.300000	1.552338
1.301000	1.551372
1.302000	1.547829
1.303000	1.545896
1.304000	1.552338
1.305000	1.562645
1.306000	1.565222
1.307000	1.571664
1.308000	1.578428
1.309000	1.588413
1.310000	1.588735
1.311000	1.591312
1.312000	1.584870
1.313000	1.580682
1.314000	1.569409
1.315000	1.562001
1.316000	1.553626
1.317000	1.545574
1.318000	1.538488
1.319000	1.537200
1.320000	1.540421
1.321000	1.549761
1.322000	1.552982
1.323000	1.564578
1.324000	1.573274
1.325000	1.576817
1.326000	1.585836
1.327000	1.586480
1.328000	1.591956
1.329000	1.584225
1.330000	1.571986
1.331000	1.566510
1.332000	1.557814
1.333000	1.547507
1.334000	1.538488
1.335000	1.543319
1.336000	1.544930
1.337000	1.549439
1.338000	1.555237
1.339000	1.556847
1.340000	1.561357
1.341000	1.570053
1.342000	1.581649
1.343000	1.588091
1.344000	1.589701
1.345000	1.581971
1.346000	1.575207
1.347000	1.566510
1.348000	1.556525
1.349000	1.551694
1.350000	1.544930
1.351000	1.543642
1.352000	1.547185
1.353000	1.549761
1.354000	1.552982
1.355000	1.557492
1.356000	1.565866
1.357000	1.574885
1.358000	1.583259
1.359000	1.587446
1.360000	1.592922
1.361000	1.593566
1.362000	1.596787
1.363000	1.577461
1.364000	1.570375
1.365000	1.564578
1.366000	1.558136
1.367000	1.555881
1.368000	1.550728
1.369000	1.552338
1.370000	1.552660
1.371000	1.565222
1.372000	1.563933
1.373000	1.573918
1.374000	1.580360
1.375000	1.588091
1.376000	1.602263
1.377000	1.598075
1.378000	1.593566
1.379000	1.588735
1.380000	1.577461
1.381000	1.564900
1.382000	1.556525
1.383000	1.551694
1.384000	1.552016
1.385000	1.548473
1.386000	1.549117
1.387000	1.552016
1.388000	1.556847
1.389000	1.567477
1.390000	1.573596
1.391000	1.579716
1.392000	1.590023
1.393000	1.589701
1.394000	1.594855
1.395000	1.589701
1.396000	1.577461
1.397000	1.571342
1.398000	1.563289
1.399000	1.556525
1.400000	1.552660
1.401000	1.548795
1.402000	1.549439
1.403000	1.552338
1.404000	1.554915
1.405000	1.557169
1.406000	1.564256
1.407000	1.572630
1.408000	1.581327
1.409000	1.589701
1.410000	1.595499
1.411000	1.597753
1.412000	1.587124
1.413000	1.579394
1.414000	1.572308
1.415000	1.561035
1.416000	1.554915
1.417000	1.546540
1.418000	1.545252
1.419000	1.545896
1.420000	1.552338
1.421000	1.553304
1.422000	1.564900
1.423000	1.568443
1.424000	1.575529
1.425000	1.586158
1.426000	1.589701
1.427000	1.588091
1.428000	1.585514
1.429000	1.577461
1.430000	1.570053
1.431000	1.563611
1.432000	1.558458
1.433000	1.550083
1.434000	1.551372
1.435000	1.546540
1.436000	1.546218
1.437000	1.546862
1.438000	1.552982
1.439000	1.562323
1.440000	1.570375
1.441000	1.576817
1.442000	1.584548
1.443000	1.586158
1.444000	1.587768
1.445000	1.578428
1.446000	1.575529
1.447000	1.563933
1.448000	1.558780
1.449000	1.553626
1.450000	1.552016
1.451000	1.545574
1.452000	1.543964
1.453000	1.547507
1.454000	1.552982
1.455000	1.561357
1.456000	1.567799
1.457000	1.577139
1.458000	1.585514
1.459000	1.589379
1.460000	1.590989
1.461000	1.591956
1.462000	1.588091
1.463000	1.579716
1.464000	1.570053
1.465000	1.561357
1.466000	1.557492
1.467000	1.549761
1.468000	1.547507
1.469000	1.549439
1.470000	1.551050
1.471000	1.557814
1.472000	1.562645
1.473000	1.576173
1.474000	1.580038
1.475000	1.589701
1.476000	1.591312
1.477000	1.592600
1.478000	1.591312
1.479000	1.585836
1.480000	1.577784
1.481000	1.570053
1.482000	1.561679
1.483000	1.551372
1.484000	1.558136
1.485000	1.552660
1.486000	1.556525
1.487000	1.562323
1.488000	1.565866
1.489000	1.571342
1.490000	1.581327
1.491000	1.588735
1.492000	1.592922
1.493000	1.593566
1.494000	1.598720
1.495000	1.592600
1.496000	1.585514
1.497000	1.577461
1.498000	1.569409
1.499000	1.558458
1.500000	1.553626
1.501000	1.553304
1.502000	1.547185
1.503000	1.549439
1.504000	1.547507
1.505000	1.557169
1.506000	1.565866
1.507000	1.578106
1.508000	1.583581
1.509000	1.591634
1.510000	1.594532
1.511000	1.595499
1.512000	1.588091
1.513000	1.578750
1.514000	1.573274
1.515000	1.563289
1.516000	1.555237
1.517000	1.550406
1.518000	1.546862
1.519000	1.547185
1.520000	1.549761
1.521000	1.558458
1.522000	1.557492
1.523000	1.572952
1.524000	1.574563
1.525000	1.583259
1.526000	1.582615
1.527000	1.590345
1.528000	1.576173
1.529000	1.573274
1.530000	1.563933
1.531000	1.554593
1.532000	1.548795
1.533000	1.541387
1.534000	1.541709
1.535000	1.540098
1.536000	1.541065
1.537000	1.545574
1.538000	1.552016
1.539000	1.559746
1.540000	1.568765
1.541000	1.576173
1.542000	1.587446
1.543000	1.593888
1.544000	1.590667
1.545000	1.586480
1.546000	1.582293
1.547000	1.573596
1.548000	1.565222
1.549000	1.553304
1.550000	1.551372
1.551000	1.544608
1.552000	1.546540
1.553000	1.551694
1.554000	1.552338
1.555000	1.556525
1.556000	1.563611
1.557000	1.575207
1.558000	1.581327
1.559000	1.585514
1.560000	1.587768
1.561000	1.586480
1.562000	1.581004
1.563000	1.573918
1.564000	1.566188
1.565000	1.557492
1.566000	1.549761
1.567000	1.546862
1.568000	1.543964
1.569000	1.542997
1.570000	1.550728
1.571000	1.557492
1.572000	1.562645
1.573000	1.574885
1.574000	1.578106
1.575000	1.582615
1.576000	1.587124
1.577000	1.591312
1.578000	1.584225
1.579000	1.578106
1.580000	1.571020
1.581000	1.564900
1.582000	1.556525
1.583000	1.552982
1.584000	1.547829
1.585000	1.550083
1.586000	1.549117
1.587000	1.554593
1.588000	1.561357
1.589000	1.567799
1.590000	1.571986
1.591000	1.580038
1.592000	1.589057
1.593000	1.594210
1.594000	1.592922
1.595000	1.586802
1.596000	1.579394
1.597000	1.574885
1.598000	1.563611
1.599000	1.558136
1.600000	1.553949
1.601000	1.548795
1.602000	1.546540
1.603000	1.546862
1.604000	1.554593
1.605000	1.561357
1.606000	1.567154
1.607000	1.575529
1.608000	1.582615
1.609000	1.586802
1.610000	1.590345
1.611000	1.589379
1.612000	1.581327
1.613000	1.573274
1.614000	1.569087
1.615000	1.562967
1.616000	1.552016
1.617000	1.550728
1.618000	1.548473
1.619000	1.545574
1.620000	1.548795
1.621000	1.557814
1.622000	1.562001
1.623000	1.566188
1.624000	1.578106
1.625000	1.587768
1.626000	1.591634
1.627000	1.595499
1.628000	1.590667
1.629000	1.582293
1.630000	1.573596
1.631000	1.565544
1.632000	1.556525
1.633000	1.549439
1.634000	1.543319
1.635000	1.546218
1.636000	1.550406
1.637000	1.551372
1.638000	1.556525
1.639000	1.565222
1.640000	1.571342
1.641000	1.579072
1.642000	1.585836
1.643000	1.590667
1.644000	1.592922
1.645000	1.584548
1.646000	1.579394
1.647000	1.573596
1.648000	1.565222
1.649000	1.556203
1.650000	1.550406
1.651000	1.547507
1.652000	1.547829
1.653000	1.550406
1.654000	1.555237
1.655000	1.563611
1.656000	1.571342
1.657000	1.585514
1.658000	1.591312
1.659000	1.591634
1.660000	1.601296
1.661000	1.599364
1.662000	1.588735
1.663000	1.584548
1.664000	1.575529
1.665000	1.569409
1.666000	1.561357
1.667000	1.554271
1.668000	1.551694
1.669000	1.553626
1.670000	1.557492
1.671000	1.559746
1.672000	1.568765
1.673000	1.575529
1.674000	1.579072
1.675000	1.586802
1.676000	1.591312
1.677000	1.591634
1.678000	1.586158
1.679000	1.578428
1.680000	1.571342
1.681000	1.562001
1.682000	1.558136
1.683000	1.555559
1.684000	1.550083
1.685000	1.551050
1.686000	1.553626
1.687000	1.563611
1.688000	1.562001
1.689000	1.569409
1.690000	1.571986
1.691000	1.582615
1.692000	1.592600
1.693000	1.592278
1.694000	1.593566
1.695000	1.589057
1.696000	1.582937
1.697000	1.575207
1.698000	1.568765
1.699000	1.561357
1.700000	1.557492
1.701000	1.552338
1.702000	1.549439
1.703000	1.550728
1.704000	1.559424
1.705000	1.565866
1.706000	1.572952
1.707000	1.582615
1.708000	1.591312
1.709000	1.596143
1.710000	1.602585
1.711000	1.595499
1.712000	1.587124
1.713000	1.574563
1.714000	1.571020
1.715000	1.562645
1.716000	1.552982
1.717000	1.553304
1.718000	1.548151
1.719000	1.547829
1.720000	1.552660
1.721000	1.560068
1.722000	1.566832
1.723000	1.575851
1.724000	1.581971
1.725000	1.589379
1.726000	1.592600
1.727000	1.596143
1.728000	1.591956
1.729000	1.584548
1.730000	1.574885
1.731000	1.567477
1.732000	1.567799
1.733000	1.560713
1.734000	1.555237
1.735000	1.552982
1.736000	1.553304
1.737000	1.559102
1.738000	1.561357
1.739000	1.563933
1.740000	1.574885
1.741000	1.584548
1.742000	1.592278
1.743000	1.595177
1.744000	1.596787
1.745000	1.590023
1.746000	1.574563
1.747000	1.570375
1.748000	1.566188
1.749000	1.556203
1.750000	1.547507
1.751000	1.549761
1.752000	1.551050
1.753000	1.554915
1.754000	1.556525
1.755000	1.558780
1.756000	1.568121
1.757000	1.584225
1.758000	1.587124
1.759000	1.588091
1.760000	1.593244
1.761000	1.588091
1.762000	1.582937
1.763000	1.576817
1.764000	1.568765
1.765000	1.560713
1.766000	1.553304
1.767000	1.549761
1.768000	1.551050
1.769000	1.550728
1.770000	1.556847
1.771000	1.558136
1.772000	1.567154
1.773000	1.575851
1.774000	1.584870
1.775000	1.588735
1.776000	1.594210
1.777000	1.590667
1.778000	1.586802
1.779000	1.575207
1.780000	1.569409
1.781000	1.566188
1.782000	1.558458
1.783000	1.552016
1.784000	1.546862
1.785000	1.547185
1.786000	1.547507
1.787000	1.552338
1.788000	1.555237
1.789000	1.561679
1.790000	1.569731
1.791000	1.582293
1.792000	1.588735
1.793000	1.589379
1.794000	1.586802
1.795000	1.578106
1.796000	1.577784
1.797000	1.569087
1.798000	1.562001
1.799000	1.554271
1.800000	1.547507
1.801000	1.545896
1.802000	1.543319
1.803000	1.556847
1.804000	1.555881
1.805000	1.560713
1.806000	1.577139
1.807000	1.576495
1.808000	1.585514
1.809000	1.593566
1.810000	1.593888
1.811000	1.586802
1.812000	1.584870
1.813000	1.572952
1.814000	1.568121
1.815000	1.561035
1.816000	1.558136
1.817000	1.553949
1.818000	1.554915
1.819000	1.554593
1.820000	1.556847
1.821000	1.557814
1.822000	1.556847
1.823000	1.563933
1.824000	1.576817
1.825000	1.585514
1.826000	1.588735
1.827000	1.587124
1.828000	1.583903
1.829000	1.578750
1.830000	1.568765
1.831000	1.560390
1.832000	1.554915
1.833000	1.545896
1.834000	1.547507
1.835000	1.546540
1.836000	1.548795
1.837000	1.552660
1.838000	1.560713
1.839000	1.566188
1.840000	1.572308
1.841000	1.585836
1.842000	1.595177
1.843000	1.591634
1.844000	1.591634
1.845000	1.581649
1.846000	1.572952
1.847000	1.570053
1.848000	1.558458
1.849000	1.553626
1.850000	1.550083
1.851000	1.550728
1.852000	1.544930
1.853000	1.544608
1.854000	1.548151
1.855000	1.555237
1.856000	1.564900
1.857000	1.572308
1.858000	1.583581
1.859000	1.589057
1.860000	1.592278
1.861000	1.586480
1.862000	1.578428
1.863000	1.576817
1.864000	1.561357
1.865000	1.556203
1.866000	1.555559
1.867000	1.548473
1.868000	1.548151
1.869000	1.546540
1.870000	1.548473
1.871000	1.554593
1.872000	1.560713
1.873000	1.574885
1.874000	1.580682
1.875000	1.586480
1.876000	1.590989
1.877000	1.591312
1.878000	1.584225
1.879000	1.575851
1.880000	1.570375
1.881000	1.563611
1.882000	1.550406
1.883000	1.549117
1.884000	1.545574
1.885000	1.545252
1.886000	1.549117
1.887000	1.554593
1.888000	1.559746
1.889000	1.569731
1.890000	1.572630
1.891000	1.583903
1.892000	1.591956
1.893000	1.594210
1.894000	1.592922
1.895000	1.586802
1.896000	1.574563
1.897000	1.568765
1.898000	1.560713
1.899000	1.554915
1.900000	1.552660
1.901000	1.551050
1.902000	1.544608
1.903000	1.551694
1.904000	1.552660
1.905000	1.559746
1.906000	1.573918
1.907000	1.521095
1.908000	1.503058
1.909000	1.552982
1.910000	1.581649
1.911000	1.588091
1.912000	1.579716
1.913000	1.579394
1.914000	1.569731
1.915000	1.565222
1.916000	1.493073
1.917000	1.457642
1.918000	1.510144
1.919000	1.535267
1.920000	1.562001
1.921000	1.571664
1.922000	1.579394
1.923000	1.584225
1.924000	1.598075
1.925000	1.609349
1.926000	1.610959
1.927000	1.612248
1.928000	1.604195
1.929000	1.593566
1.930000	1.583581
1.931000	1.572952
1.932000	1.565866
1.933000	1.558780
1.934000	1.559746
1.935000	1.556847
1.936000	1.558136
1.937000	1.565866
1.938000	1.568765
1.939000	1.578428
1.940000	1.582937
1.941000	1.592922
1.942000	1.598075
1.943000	1.603551
1.944000	1.600652
1.945000	1.586158
1.946000	1.574240
1.947000	1.568443
1.948000	1.558780
1.949000	1.551372
1.950000	1.548795
1.951000	1.551372
1.952000	1.549761
1.953000	1.553949
1.954000	1.552016
1.955000	1.559102
1.956000	1.563933
1.957000	1.572630
1.958000	1.582293
1.959000	1.589701
1.960000	1.593244
1.961000	1.585514
1.962000	1.584548
1.963000	1.571020
1.964000	1.566510
1.965000	1.555881
1.966000	1.548795
1.967000	1.546218
1.968000	1.547829
1.969000	1.547829
1.970000	1.553304
1.971000	1.552660
1.972000	1.565222
1.973000	1.569087
1.974000	1.579072
1.975000	1.588413
1.976000	1.596465
1.977000	1.594210
1.978000	1.584548
1.979000	1.578750
1.980000	1.574885
1.981000	1.571020
1.982000	1.559424
1.983000	1.554593
1.984000	1.550406
1.985000	1.551050
1.986000	1.552016
1.987000	1.554593
1.988000	1.562001
1.989000	1.568765
1.990000	1.569731
1.991000	1.594855
1.992000	1.590667
1.993000	1.595499
1.994000	1.591956
1.995000	1.580682
1.996000	1.576817
1.997000	1.569731
1.998000	1.557492
1.999000	1.551050
2.000000	1.547829
2.001000	1.539132
2.002000	1.546862
2.003000	1.552982
2.004000	1.557169
2.005000	1.562323
2.006000	1.568765
2.007000	1.579716
2.008000	1.586158
2.009000	1.587446
2.010000	1.589057
2.011000	1.583259
2.012000	1.576817
2.013000	1.571986
2.014000	1.565866
2.015000	1.559102
2.016000	1.554271
2.017000	1.548795
2.018000	1.548795
2.019000	1.550083
2.020000	1.558136
2.021000	1.562323
2.022000	1.569087
2.023000	1.572952
2.024000	1.581327
2.025000	1.590667
2.026000	1.588735
2.027000	1.597753
2.028000	1.583903
2.029000	1.579716
2.030000	1.570375
2.031000	1.561357
2.032000	1.553626
2.033000	1.547185
2.034000	1.538166
2.035000	1.546862
2.036000	1.549117
2.037000	1.555237
2.038000	1.556203
2.039000	1.565866
2.040000	1.573274
2.041000	1.583259
2.042000	1.588091
2.043000	1.595821
2.044000	1.594855
2.045000	1.584548
2.046000	1.576173
2.047000	1.567799
2.048000	1.562645
2.049000	1.552338
2.050000	1.549439
2.051000	1.550728
2.052000	1.548151
2.053000	1.550083
2.054000	1.553949
2.055000	1.562967
2.056000	1.572952
2.057000	1.579072
2.058000	1.587768
2.059000	1.590345
2.060000	1.595177
2.061000	1.592278
2.062000	1.585836
2.063000	1.576817
2.064000	1.569409
2.065000	1.559746
2.066000	1.556847
2.067000	1.552982
2.068000	1.548795
2.069000	1.550406
2.070000	1.553626
2.071000	1.556847
2.072000	1.563611
2.073000	1.570375
2.074000	1.577139
2.075000	1.586480
2.076000	1.592600
2.077000	1.589057
2.078000	1.585192
2.079000	1.578750
2.080000	1.571986
2.081000	1.567799
2.082000	1.555559
2.083000	1.554271
2.084000	1.546540
2.085000	1.543642
2.086000	1.542031
2.087000	1.555559
2.088000	1.556847
2.089000	1.563933
2.090000	1.573918
2.091000	1.587446
2.092000	1.592278
2.093000	1.589057
2.094000	1.584548
2.095000	1.577139
2.096000	1.568765
2.097000	1.565866
2.098000	1.558458
2.099000	1.549117
2.100000	1.537844
2.101000	1.539776
2.102000	1.539776
2.103000	1.544608
2.104000	1.544930
2.105000	1.553949
2.106000	1.567154
2.107000	1.580038
2.108000	1.585192
2.109000	1.589379
2.110000	1.588091
2.111000	1.581971
2.112000	1.578750
2.113000	1.568765
2.114000	1.564578
2.115000	1.557169
2.116000	1.549439
2.117000	1.547829
2.118000	1.545252
2.119000	1.545574
2.120000	1.548795
2.121000	1.554593
2.122000	1.563289
2.123000	1.571020
2.124000	1.578428
2.125000	1.584548
2.126000	1.587124
2.127000	1.586802
2.128000	1.581004
2.129000	1.578106
2.130000	1.571020
2.131000	1.557814
2.132000	1.555881
2.133000	1.548151
2.134000	1.540421
2.135000	1.538810
2.136000	1.542675
2.137000	1.550728
2.138000	1.552982
2.139000	1.562967
2.140000	1.564900
2.141000	1.584870
2.142000	1.586480
2.143000	1.588413
2.144000	1.588735
2.145000	1.577784
2.146000	1.569731
2.147000	1.562967
2.148000	1.558136
2.149000	1.553949
2.150000	1.552660
2.151000	1.547507
2.152000	1.550728
2.153000	1.554593
2.154000	1.563933
2.155000	1.565544
2.156000	1.571986
2.157000	1.575529
2.158000	1.588413
2.159000	1.584870
2.160000	1.590667
2.161000	1.587768
2.162000	1.584548
2.163000	1.571986
2.164000	1.564256
2.165000	1.562645
2.166000	1.549761
2.167000	1.546862
2.168000	1.544286
2.169000	1.547829
2.170000	1.556203
2.171000	1.557814
2.172000	1.565544
2.173000	1.574563
2.174000	1.580682
2.175000	1.597109
2.176000	1.594210
2.177000	1.595499
2.178000	1.586480
2.179000	1.580360
2.180000	1.571342
2.181000	1.563611
2.182000	1.560713
2.183000	1.548473
2.184000	1.544608
2.185000	1.543319
2.186000	1.545574
2.187000	1.553949
2.188000	1.556203
2.189000	1.565544
2.190000	1.573918
2.191000	1.580682
2.192000	1.587124
2.193000	1.590345
2.194000	1.587768
2.195000	1.583903
2.196000	1.572308
2.197000	1.562645
2.198000	1.562645
2.199000	1.552338
2.200000	1.550406
2.201000	1.551050
2.202000	1.548473
2.203000	1.549761
2.204000	1.556525
2.205000	1.563611
2.206000	1.569731
2.207000	1.577461
2.208000	1.587768
2.209000	1.589379
2.210000	1.590667
2.211000	1.590989
2.212000	1.583903
2.213000	1.573918
2.214000	1.567799
2.215000	1.554915
2.216000	1.549117
2.217000	1.550406
2.218000	1.540098
2.219000	1.545574
2.220000	1.552338
2.221000	1.556525
2.222000	1.563611
2.223000	1.572308
2.224000	1.580360
2.225000	1.580360
2.226000	1.588413
2.227000	1.593566
2.228000	1.581649
2.229000	1.575207
2.230000	1.564578
2.231000	1.563289
2.232000	1.555559
2.233000	1.550728
2.234000	1.547185
2.235000	1.547829
2.236000	1.549761
2.237000	1.554915
2.238000	1.560068
2.239000	1.567154
2.240000	1.578106
2.241000	1.580038
2.242000	1.587768
2.243000	1.590989
2.244000	1.591312
2.245000	1.577461
2.246000	1.568121
2.247000	1.560713
2.248000	1.552016
2.249000	1.546218
2.250000	1.541387
2.251000	1.539132
2.252000	1.533657
2.253000	1.537844
2.254000	1.540098
2.255000	1.551050
2.256000	1.557492
2.257000	1.557814
2.258000	1.572630
2.259000	1.572308
2.260000	1.582615
2.261000	1.575851
2.262000	1.566832
2.263000	1.558780
2.264000	1.555559
2.265000	1.550406
2.266000	1.538810
2.267000	1.535267
2.268000	1.536555
2.269000	1.537844
2.270000	1.545574
2.271000	1.553304
2.272000	1.559424
2.273000	1.564900
2.274000	1.577139
2.275000	1.581649
2.276000	1.583581
2.277000	1.579072
2.278000	1.574563
2.279000	1.567799
2.280000	1.563289
2.281000	1.558458
2.282000	1.552982
2.283000	1.546862
2.284000	1.546540
2.285000	1.546540
2.286000	1.549761
2.287000	1.557492
2.288000	1.562001
2.289000	1.568443
2.290000	1.576173
2.291000	1.586802
2.292000	1.592600
2.293000	1.592600
2.294000	1.593244
2.295000	1.587446
2.296000	1.574240
2.297000	1.564256
2.298000	1.561679
2.299000	1.551050
2.300000	1.546540
2.301000	1.547185
2.302000	1.546540
2.303000	1.549439
2.304000	1.556203
2.305000	1.561679
2.306000	1.569731
2.307000	1.579394
2.308000	1.584548
2.309000	1.593566
2.310000	1.593566
2.311000	1.588091
2.312000	1.582937
2.313000	1.571020
2.314000	1.562645
2.315000	1.555559
2.316000	1.550406
2.317000	1.551050
2.318000	1.552016
2.319000	1.549439
2.320000	1.552016
2.321000	1.554915
2.322000	1.558780
2.323000	1.566188
2.324000	1.576495
2.325000	1.588735
2.326000	1.584225
2.327000	1.585514
2.328000	1.580038
2.329000	1.575529
2.330000	1.569087
2.331000	1.561679
2.332000	1.554915
2.333000	1.553626
2.334000	1.545896
2.335000	1.540743
2.336000	1.547829
2.337000	1.555559
2.338000	1.565544
2.339000	1.570053
2.340000	1.576817
2.341000	1.587768
2.342000	1.590667
2.343000	1.595177
2.344000	1.592278
2.345000	1.589701
2.346000	1.577784
2.347000	1.567154
2.348000	1.564900
2.349000	1.558458
2.350000	1.554593
2.351000	1.545896
2.352000	1.551694
2.353000	1.555237
2.354000	1.567477
2.355000	1.566510
2.356000	1.576495
2.357000	1.581327
2.358000	1.594855
2.359000	1.598075
2.360000	1.598398
2.361000	1.593566
2.362000	1.583903
2.363000	1.572630
2.364000	1.563289
2.365000	1.559746
2.366000	1.552660
2.367000	1.550406
2.368000	1.549117
2.369000	1.551050
2.370000	1.555881
2.371000	1.559424
2.372000	1.565222
2.373000	1.570053
2.374000	1.579394
2.375000	1.583903
2.376000	1.585192
2.377000	1.589057
2.378000	1.577784
2.379000	1.570053
2.380000	1.562645
2.381000	1.549117
2.382000	1.550728
2.383000	1.545252
2.384000	1.542353
2.385000	1.542997
2.386000	1.548795
2.387000	1.554915
2.388000	1.558136
2.389000	1.566510
2.390000	1.577784
2.391000	1.587124
2.392000	1.595821
2.393000	1.596787
2.394000	1.588735
2.395000	1.579394
2.396000	1.569409
2.397000	1.558136
2.398000	1.550406
2.399000	1.543319
2.400000	1.540743
2.401000	1.542675
2.402000	1.549439
2.403000	1.554593
2.404000	1.558136
2.405000	1.561357
2.406000	1.569409
2.407000	1.577139
2.408000	1.585836
2.409000	1.594210
2.410000	1.594855
2.411000	1.593888
2.412000	1.588091
2.413000	1.574240
2.414000	1.565866
2.415000	1.557169
2.416000	1.555237
2.417000	1.552016
2.418000	1.550083
2.419000	1.553626
2.420000	1.558136
2.421000	1.565222
2.422000	1.569409
2.423000	1.578750
2.424000	1.584870
2.425000	1.591634
2.426000	1.593888
2.427000	1.590667
2.428000	1.585514
2.429000	1.576495
2.430000	1.566188
2.431000	1.558458
2.432000	1.552660
2.433000	1.543964
2.434000	1.542031
2.435000	1.543319
2.436000	1.544608
2.437000	1.549439
2.438000	1.557169
2.439000	1.562001
2.440000	1.571986
2.441000	1.576173
2.442000	1.582293
2.443000	1.584548
2.444000	1.580360
2.445000	1.578106
2.446000	1.570053
2.447000	1.560713
2.448000	1.552338
2.449000	1.542353
2.450000	1.542353
2.451000	1.535267
2.452000	1.534301
2.453000	1.541709
2.454000	1.546862
2.455000	1.556525
2.456000	1.562967
2.457000	1.572952
2.458000	1.581971
2.459000	1.589701
2.460000	1.592600
2.461000	1.586802
2.462000	1.583581
2.463000	1.569409
2.464000	1.562967
2.465000	1.559424
2.466000	1.548151
2.467000	1.547829
2.468000	1.543964
2.469000	1.552338
2.470000	1.562645
2.471000	1.563611
2.472000	1.571664
2.473000	1.580038
2.474000	1.593244
2.475000	1.599686
2.476000	1.598398
2.477000	1.597431
2.478000	1.590023
2.479000	1.584870
2.480000	1.575207
2.481000	1.567154
2.482000	1.559746
2.483000	1.552982
2.484000	1.546218
2.485000	1.544286
2.486000	1.545896
2.487000	1.554915
2.488000	1.572952
2.489000	1.558458
2.490000	1.579716
2.491000	1.587446
2.492000	1.591956
2.493000	1.595499
2.494000	1.595821
2.495000	1.590023
2.496000	1.578428
2.497000	1.565866
2.498000	1.557169
2.499000	1.550728
2.500000	1.549439
2.501000	1.549439
2.502000	1.545574
2.503000	1.550406
2.504000	1.559746
2.505000	1.562001
2.506000	1.569087
2.507000	1.580682
2.508000	1.585836
2.509000	1.589701
2.510000	1.588413
2.511000	1.585836
2.512000	1.578106
2.513000	1.570697
2.514000	1.562001
2.515000	1.558780
2.516000	1.553949
2.517000	1.550728
2.518000	1.552982
2.519000	1.551050
2.520000	1.553304
2.521000	1.555559
2.522000	1.560390
2.523000	1.564256
2.524000	1.576817
2.525000	1.585836
2.526000	1.592922
2.527000	1.591634
2.528000	1.583903
2.529000	1.576495
2.530000	1.567799
2.531000	1.562001
2.532000	1.554915
2.533000	1.549761
2.534000	1.547829
2.535000	1.547829
2.536000	1.552338
2.537000	1.556203
2.538000	1.559746
2.539000	1.569087
2.540000	1.581971
2.541000	1.590345
2.542000	1.596787
2.543000	1.598398
2.544000	1.593244
2.545000	1.586802
2.546000	1.574885
2.547000	1.561679
2.548000	1.558458
2.549000	1.546218
2.550000	1.540098
2.551000	1.540421
2.552000	1.543319
2.553000	1.545896
2.554000	1.551050
2.555000	1.557492
2.556000	1.565544
2.557000	1.564256
2.558000	1.574563
2.559000	1.582615
2.560000	1.586802
2.561000	1.580038
2.562000	1.575207
2.563000	1.565544
2.564000	1.559102
2.565000	1.550406
2.566000	1.546540
2.567000	1.546218
2.568000	1.540421
2.569000	1.545574
2.570000	1.549117
2.571000	1.558780
2.572000	1.557169
2.573000	1.568121
2.574000	1.582293
2.575000	1.588091
2.576000	1.586158
2.577000	1.585836
2.578000	1.577784
2.579000	1.571664
2.580000	1.559424
2.581000	1.556525
2.582000	1.551372
2.583000	1.547829
2.584000	1.544930
2.585000	1.539454
2.586000	1.548151
2.587000	1.549439
2.588000	1.562645
2.589000	1.565222
2.590000	1.573596
2.591000	1.581971
2.592000	1.587446
2.593000	1.588413
2.594000	1.587446
2.595000	1.579716
2.596000	1.577139
2.597000	1.567477
2.598000	1.563289
2.599000	1.552982
2.600000	1.546862
2.601000	1.540743
2.602000	1.539776
2.603000	1.545252
2.604000	1.551050
2.605000	1.559424
2.606000	1.572308
2.607000	1.577784
2.608000	1.586158
2.609000	1.589057
2.610000	1.588735
2.611000	1.580682
2.612000	1.576173
2.613000	1.564900
2.614000	1.561035
2.615000	1.552338
2.616000	1.547829
2.617000	1.546862
2.618000	1.549761
2.619000	1.546862
2.620000	1.551372
2.621000	1.559746
2.622000	1.568443
2.623000	1.577784
2.624000	1.590345
2.625000	1.590667
2.626000	1.599364
2.627000	1.591956
2.628000	1.584548
2.629000	1.571986
2.630000	1.573274
2.631000	1.560390
2.632000	1.552982
2.633000	1.546540
2.634000	1.544930
2.635000	1.543964
2.636000	1.553949
2.637000	1.556847
2.638000	1.561035
2.639000	1.574885
2.640000	1.582615
2.641000	1.585192
2.642000	1.589701
2.643000	1.590667
2.644000	1.591312
2.645000	1.583903
2.646000	1.574885
2.647000	1.568121
2.648000	1.562645
2.649000	1.555559
2.650000	1.542675
2.651000	1.545252
2.652000	1.543964
2.653000	1.549761
2.654000	1.554271
2.655000	1.562645
2.656000	1.572952
2.657000	1.582293
2.658000	1.585836
2.659000	1.592922
2.660000	1.593888
2.661000	1.590345
2.662000	1.584870
2.663000	1.570053
2.664000	1.558780
2.665000	1.552338
2.666000	1.544608
2.667000	1.542031
2.668000	1.543642
2.669000	1.544608
2.670000	1.548473
2.671000	1.550728
2.672000	1.564578
2.673000	1.571020
2.674000	1.571664
2.675000	1.584548
2.676000	1.588735
2.677000	1.581004
2.678000	1.581004
2.679000	1.572630
2.680000	1.565866
2.681000	1.558780
2.682000	1.550728
2.683000	1.545896
2.684000	1.543642
2.685000	1.546862
2.686000	1.548473
2.687000	1.556847
2.688000	1.563289
2.689000	1.570375
2.690000	1.578428
2.691000	1.589057
2.692000	1.589379
2.693000	1.590023
2.694000	1.584225
2.695000	1.575851
2.696000	1.574563
2.697000	1.565222
2.698000	1.557814
2.699000	1.548795
2.700000	1.547507
2.701000	1.546218
2.702000	1.548151
2.703000	1.548151
2.704000	1.557492
2.705000	1.560713
2.706000	1.568121
2.707000	1.578750
2.708000	1.586480
2.709000	1.591312
2.710000	1.590023
2.711000	1.582937
2.712000	1.576817
2.713000	1.567154
2.714000	1.563933
2.715000	1.555559
2.716000	1.550083
2.717000	1.547185
2.718000	1.549117
2.719000	1.549761
2.720000	1.550083
2.721000	1.556203
2.722000	1.565222
2.723000	1.567799
2.724000	1.579394
2.725000	1.588413
2.726000	1.587768
2.727000	1.586802
2.728000	1.575529
2.729000	1.569409
2.730000	1.564900
2.731000	1.559746
2.732000	1.550406
2.733000	1.547507
2.734000	1.542997
2.735000	1.545252
2.736000	1.550406
2.737000	1.552338
2.738000	1.559102
2.739000	1.566188
2.740000	1.576495
2.741000	1.586802
2.742000	1.592278
2.743000	1.596143
2.744000	1.587768
2.745000	1.584870
2.746000	1.574240
2.747000	1.564900
2.748000	1.558458
2.749000	1.546540
2.750000	1.541065
2.751000	1.541387
2.752000	1.540421
2.753000	1.546862
2.754000	1.555559
2.755000	1.560713
2.756000	1.568121
2.757000	1.577461
2.758000	1.583903
2.759000	1.594210
2.760000	1.586802
2.761000	1.579716
2.762000	1.573918
2.763000	1.568121
2.764000	1.557814
2.765000	1.555559
2.766000	1.548473
2.767000	1.546540
2.768000	1.544930
2.769000	1.547829
2.770000	1.553626
2.771000	1.562323
2.772000	1.568121
2.773000	1.573274
2.774000	1.582937
2.775000	1.584870
2.776000	1.588091
2.777000	1.586480
2.778000	1.577784
2.779000	1.571342
2.780000	1.570053
2.781000	1.558780
2.782000	1.551694
2.783000	1.547829
2.784000	1.542353
2.785000	1.543964
2.786000	1.547507
2.787000	1.557492
2.788000	1.562001
2.789000	1.571342
2.790000	1.577784
2.791000	1.582937
2.792000	1.585836
2.793000	1.584225
2.794000	1.585836
2.795000	1.578106
2.796000	1.571020
2.797000	1.565866
2.798000	1.558458
2.799000	1.553626
2.800000	1.552982
2.801000	1.552982
2.802000	1.553304
2.803000	1.557814
2.804000	1.566832
2.805000	1.568121
2.806000	1.576495
2.807000	1.581649
2.808000	1.588735
2.809000	1.591312
2.810000	1.590667
2.811000	1.582937
2.812000	1.572630
2.813000	1.565222
2.814000	1.560390
2.815000	1.556847
2.816000	1.547507
2.817000	1.544286
2.818000	1.545574
2.819000	1.546218
2.820000	1.555237
2.821000	1.561035
2.822000	1.569731
2.823000	1.577784
2.824000	1.591956
2.825000	1.589701
2.826000	1.589701
2.827000	1.593244
2.828000	1.585192
2.829000	1.579072
2.830000	1.571342
2.831000	1.563933
2.832000	1.558458
2.833000	1.552660
2.834000	1.550406
2.835000	1.550406
2.836000	1.550728
2.837000	1.554593
2.838000	1.563289
2.839000	1.571020
2.840000	1.581004
2.841000	1.588735
2.842000	1.592278
2.843000	1.591634
2.844000	1.590023
2.845000	1.582615
2.846000	1.574885
2.847000	1.571020
2.848000	1.562001
2.849000	1.556847
2.850000	1.552338
2.851000	1.548473
2.852000	1.551050
2.853000	1.556203
2.854000	1.560068
2.855000	1.566510
2.856000	1.570053
2.857000	1.581649
2.858000	1.582937
2.859000	1.599686
2.860000	1.594210
2.861000	1.585514
2.862000	1.574885
2.863000	1.571020
2.864000	1.562001
2.865000	1.556525
2.866000	1.548151
2.867000	1.549439
2.868000	1.550083
2.869000	1.547185
2.870000	1.550406
2.871000	1.559424
2.872000	1.564578
2.873000	1.573918
2.874000	1.582937
2.875000	1.588735
2.876000	1.591312
2.877000	1.592922
2.878000	1.580682
2.879000	1.576817
2.880000	1.572952
2.881000	1.563289
2.882000	1.551694
2.883000	1.546218
2.884000	1.545252
2.885000	1.547185
2.886000	1.545574
2.887000	1.552338
2.888000	1.558136
2.889000	1.569731
2.890000	1.575851
2.891000	1.587446
2.892000	1.591634
2.893000	1.591956
2.894000	1.583259
2.895000	1.579716
2.896000	1.573596
2.897000	1.567154
2.898000	1.558780
2.899000	1.552338
2.900000	1.546218
2.901000	1.545896
2.902000	1.543964
2.903000	1.548473
2.904000	1.559424
2.905000	1.565222
2.906000	1.572952
2.907000	1.581649
2.908000	1.590989
2.909000	1.587768
2.910000	1.589379
2.911000	1.583903
2.912000	1.572308
2.913000	1.567154
2.914000	1.571664
2.915000	1.553626
2.916000	1.547507
2.917000	1.546862
2.918000	1.545896
2.919000	1.548473
2.920000	1.553626
2.921000	1.560068
2.922000	1.563933
2.923000	1.573274
2.924000	1.580682
2.925000	1.593888
2.926000	1.585514
2.927000	1.584548
2.928000	1.578106
2.929000	1.572952
2.930000	1.562967
2.931000	1.555881
2.932000	1.549761
2.933000	1.542031
2.934000	1.541065
2.935000	1.546862
2.936000	1.552982
2.937000	1.557814
2.938000	1.563933
2.939000	1.571986
2.940000	1.580360
2.941000	1.583259
2.942000	1.589701
2.943000	1.591956
2.944000	1.586158
2.945000	1.581971
2.946000	1.573274
2.947000	1.564900
2.948000	1.556847
2.949000	1.553304
2.950000	1.548151
2.951000	1.546540
2.952000	1.552982
2.953000	1.554915
2.954000	1.562967
2.955000	1.570697
2.956000	1.574563
2.957000	1.587124
2.958000	1.589701
2.959000	1.593888
2.960000	1.590989
2.961000	1.585514
2.962000	1.577461
2.963000	1.575851
2.964000	1.560068
2.965000	1.545896
2.966000	1.540098
2.967000	1.537522
2.968000	1.539132
2.969000	1.542031
2.970000	1.549439
2.971000	1.557492
2.972000	1.565866
2.973000	1.579072
2.974000	1.586480
2.975000	1.590667
2.976000	1.591956
2.977000	1.592922
2.978000	1.585836
2.979000	1.576495
2.980000	1.571020
2.981000	1.563611
2.982000	1.561679
2.983000	1.556203
2.984000	1.553626
2.985000	1.545896
2.986000	1.549117
2.987000	1.554271
2.988000	1.559746
2.989000	1.567477
2.990000	1.576495
2.991000	1.584225
2.992000	1.588091
2.993000	1.590345
2.994000	1.586158
2.995000	1.580682
2.996000	1.572630
2.997000	1.567154
2.998000	1.558136
2.999000	1.549761
3.000000	1.544286
3.001000	1.546862
3.002000	1.552660
3.003000	1.552982
3.004000	1.558780
3.005000	1.566188
3.006000	1.572630
3.007000	1.579716
3.008000	1.585836
3.009000	1.589057
3.010000	1.588091
3.011000	1.580360
3.012000	1.573596
3.013000	1.566832
3.014000	1.557492
3.015000	1.548151
3.016000	1.545252
3.017000	1.552982
3.018000	1.543319
3.019000	1.544930
3.020000	1.555237
3.021000	1.559746
3.022000	1.570053
3.023000	1.573918
3.024000	1.587124
3.025000	1.590989
3.026000	1.590023
3.027000	1.587446
3.028000	1.583581
3.029000	1.575851
3.030000	1.564256
3.031000	1.558458
3.032000	1.552338
3.033000	1.547829
3.034000	1.547507
3.035000	1.545896
3.036000	1.548795
3.037000	1.548795
3.038000	1.554593
3.039000	1.560713
3.040000	1.575529
3.041000	1.588735
3.042000	1.586158
3.043000	1.590989
3.044000	1.587446
3.045000	1.578428
3.046000	1.573274
3.047000	1.564256
3.048000	1.558458
3.049000	1.554915
3.050000	1.551694
3.051000	1.544930
3.052000	1.545574
3.053000	1.550083
3.054000	1.558136
3.055000	1.564578
3.056000	1.569731
3.057000	1.581327
3.058000	1.586480
3.059000	1.585192
3.060000	1.590023
3.061000	1.580038
3.062000	1.574563
3.063000	1.568443
3.064000	1.557169
3.065000	1.549761
3.066000	1.549117
3.067000	1.547185
3.068000	1.547829
3.069000	1.552982
3.070000	1.556847
3.071000	1.566188
3.072000	1.574885
3.073000	1.583259
3.074000	1.587124
3.075000	1.594532
3.076000	1.594855
3.077000	1.585836
3.078000	1.581649
3.079000	1.575207
3.080000	1.562001
3.081000	1.552660
3.082000	1.547185
3.083000	1.546862
3.084000	1.547185
3.085000	1.546862
3.086000	1.551694
3.087000	1.555237
3.088000	1.563933
3.089000	1.568765
3.090000	1.579716
3.091000	1.587446
3.092000	1.590667
3.093000	1.592600
3.094000	1.587124
3.095000	1.578428
3.096000	1.568765
3.097000	1.562323
3.098000	1.553304
3.099000	1.543964
3.100000	1.541709
3.101000	1.540098
3.102000	1.547185
3.103000	1.549761
3.104000	1.560713
3.105000	1.564900
3.106000	1.570697
3.107000	1.577784
3.108000	1.582937
3.109000	1.581649
3.110000	1.584225
3.111000	1.576173
3.112000	1.565866
3.113000	1.562967
3.114000	1.557169
3.115000	1.547507
3.116000	1.545574
3.117000	1.541387
3.118000	1.545252
3.119000	1.542675
3.120000	1.552338
3.121000	1.560390
3.122000	1.569409
3.123000	1.575207
3.124000	1.582615
3.125000	1.587124
3.126000	1.586480
3.127000	1.582937
3.128000	1.574563
3.129000	1.571664
3.130000	1.563289
3.131000	1.548473
3.132000	1.550728
3.133000	1.542997
3.134000	1.543964
3.135000	1.545896
3.136000	1.552338
3.137000	1.551694
3.138000	1.560068
3.139000	1.576173
3.140000	1.575851
3.141000	1.579394
3.142000	1.587768
3.143000	1.590023
3.144000	1.583903
3.145000	1.574885
3.146000	1.567477
3.147000	1.561357
3.148000	1.554915
3.149000	1.548795
3.150000	1.541709
3.151000	1.540743
3.152000	1.542675
3.153000	1.546862
3.154000	1.555237
3.155000	1.561679
3.156000	1.568765
3.157000	1.581327
3.158000	1.584225
3.159000	1.586158
3.160000	1.585836
3.161000	1.580682
3.162000	1.575851
3.163000	1.564900
3.164000	1.560390
3.165000	1.552982
3.166000	1.547829
3.167000	1.549761
3.168000	1.547829
3.169000	1.550406
3.170000	1.554915
3.171000	1.562323
3.172000	1.571664
3.173000	1.579072
3.174000	1.586158
3.175000	1.585514
3.176000	1.593244
3.177000	1.583259
3.178000	1.579072
3.179000	1.575207
3.180000	1.568765
3.181000	1.559424
3.182000	1.555559
3.183000	1.550406
3.184000	1.543964
3.185000	1.549117
3.186000	1.553304
3.187000	1.554915
3.188000	1.565544
3.189000	1.573596
3.190000	1.584225
3.191000	1.590345
3.192000	1.592600
3.193000	1.592600
3.194000	1.583259
3.195000	1.578750
3.196000	1.572952
3.197000	1.563289
3.198000	1.555559
3.199000	1.547185
3.200000	1.546540
3.201000	1.547507
3.202000	1.545896
3.203000	1.556203
3.204000	1.560390
3.205000	1.566510
3.206000	1.572308
3.207000	1.583259
3.208000	1.590667
3.209000	1.594532
3.210000	1.592278
3.211000	1.585514
3.212000	1.578428
3.213000	1.565866
3.214000	1.556525
3.215000	1.549117
3.216000	1.545574
3.217000	1.549439
3.218000	1.549761
3.219000	1.546862
3.220000	1.550406
3.221000	1.555881
3.222000	1.564900
3.223000	1.572952
3.224000	1.582615
3.225000	1.587446
3.226000	1.586158
3.227000	1.586480
3.228000	1.576817
3.229000	1.570697
3.230000	1.560713
3.231000	1.556525
3.232000	1.548151
3.233000	1.545896
3.234000	1.542675
3.235000	1.550083
3.236000	1.555881
3.237000	1.560390
3.238000	1.562323
3.239000	1.569409
3.240000	1.581649
3.241000	1.588735
3.242000	1.590667
3.243000	1.589701
3.244000	1.587124
3.245000	1.577784
3.246000	1.568443
3.247000	1.562645
3.248000	1.556847
3.249000	1.553949
3.250000	1.549117
3.251000	1.545896
3.252000	1.546862
3.253000	1.551694
3.254000	1.559102
3.255000	1.562645
3.256000	1.574563
3.257000	1.582937
3.258000	1.585836
3.259000	1.590989
3.260000	1.588413
3.261000	1.578750
3.262000	1.572952
3.263000	1.564900
3.264000	1.559102
3.265000	1.552338
3.266000	1.549439
3.267000	1.545574
3.268000	1.547507
3.269000	1.546862
3.270000	1.547829
3.271000	1.557492
3.272000	1.563933
3.273000	1.573274
3.274000	1.585192
3.275000	1.590023
3.276000	1.590989
3.277000	1.583581
3.278000	1.578750
3.279000	1.569087
3.280000	1.561357
3.281000	1.556203
3.282000	1.546862
3.283000	1.545252
3.284000	1.541387
3.285000	1.546862
3.286000	1.547507
3.287000	1.558458
3.288000	1.569087
3.289000	1.574563
3.290000	1.581004
3.291000	1.586802
3.292000	1.587124
3.293000	1.592278
3.294000	1.587124
3.295000	1.575529
3.296000	1.567477
3.297000	1.558780
3.298000	1.553304
3.299000	1.546218
3.300000	1.545574
3.301000	1.542353
3.302000	1.542997
3.303000	1.551694
3.304000	1.560068
3.305000	1.569087
3.306000	1.575529
3.307000	1.585192
3.308000	1.587768
3.309000	1.593888
3.310000	1.591312
3.311000	1.580360
3.312000	1.575851
3.313000	1.561357
3.314000	1.562645
3.315000	1.547507
3.316000	1.547185
3.317000	1.546862
3.318000	1.546540
3.319000	1.556203
3.320000	1.561035
3.321000	1.566510
3.322000	1.573596
3.323000	1.573918
3.324000	1.580038
3.325000	1.588413
3.326000	1.590345
3.327000	1.586480
3.328000	1.580360
3.329000	1.569731
3.330000	1.561035
3.331000	1.556847
3.332000	1.551050
3.333000	1.541387
3.334000	1.545252
3.335000	1.541387
3.336000	1.552016
3.337000	1.557169
3.338000	1.563611
3.339000	1.568765
3.340000	1.577784
3.341000	1.587768
3.342000	1.594532
3.343000	1.591312
3.344000	1.587768
3.345000	1.585514
3.346000	1.577784
3.347000	1.565544
3.348000	1.554593
3.349000	1.547185
3.350000	1.542353
3.351000	1.545252
3.352000	1.547829
3.353000	1.553304
3.354000	1.561035
3.355000	1.565222
3.356000	1.569731
3.357000	1.580682
3.358000	1.585836
3.359000	1.588091
3.360000	1.584225
3.361000	1.579716
3.362000	1.570375
3.363000	1.566510
3.364000	1.559424
3.365000	1.555237
3.366000	1.550728
3.367000	1.549117
3.368000	1.548795
3.369000	1.552338
3.370000	1.558458
3.371000	1.563933
3.372000	1.570375
3.373000	1.581004
3.374000	1.581327
3.375000	1.589701
3.376000	1.595499
3.377000	1.588413
3.378000	1.583903
3.379000	1.576817
3.380000	1.568443
3.381000	1.563289
3.382000	1.552660
3.383000	1.550406
3.384000	1.546540
3.385000	1.548795
3.386000	1.553949
3.387000	1.561679
3.388000	1.564256
3.389000	1.573274
3.390000	1.583581
3.391000	1.595177
3.392000	1.594855
3.393000	1.584548
3.394000	1.580682
3.395000	1.579394
3.396000	1.574563
3.397000	1.569409
3.398000	1.558136
3.399000	1.549439
3.400000	1.548795
3.401000	1.549439
3.402000	1.552982
3.403000	1.553949
3.404000	1.564256
3.405000	1.573596
3.406000	1.577784
3.407000	1.591956
3.408000	1.589057
3.409000	1.598398
3.410000	1.588091
3.411000	1.584548
3.412000	1.580682
3.413000	1.566510
3.414000	1.555237
3.415000	1.545574
3.416000	1.549117
3.417000	1.547185
3.418000	1.545252
3.419000	1.548473
3.420000	1.555237
3.421000	1.563611
3.422000	1.571664
3.423000	1.578428
3.424000	1.586802
3.425000	1.592600
3.426000	1.596787
3.427000	1.585836
3.428000	1.579394
3.429000	1.571342
3.430000	1.561357
3.431000	1.555881
3.432000	1.549117
3.433000	1.547185
3.434000	1.545896
3.435000	1.549761
3.436000	1.550406
3.437000	1.561679
3.438000	1.568765
3.439000	1.578428
3.440000	1.582615
3.441000	1.589701
3.442000	1.595821
3.443000	1.591634
3.444000	1.591312
3.445000	1.577461
3.446000	1.567477
3.447000	1.559102
3.448000	1.551694
3.449000	1.544286
3.450000	1.546540
3.451000	1.545574
3.452000	1.552982
3.453000	1.552660
3.454000	1.557169
3.455000	1.562645
3.456000	1.572308
3.457000	1.580682
3.458000	1.588735
3.459000	1.588735
3.460000	1.589701
3.461000	1.585192
3.462000	1.577461
3.463000	1.570375
3.464000	1.567477
3.465000	1.559746
3.466000	1.553626
3.467000	1.551372
3.468000	1.546862
3.469000	1.553304
3.470000	1.560713
3.471000	1.563611
3.472000	1.565544
3.473000	1.580038
3.474000	1.589379
3.475000	1.590989
3.476000	1.590989
3.477000	1.589379
3.478000	1.583259
3.479000	1.576495
3.480000	1.566510
3.481000	1.555559
3.482000	1.553626
3.483000	1.548795
3.484000	1.549439
3.485000	1.552660
3.486000	1.559746
3.487000	1.562001
3.488000	1.542353
3.489000	1.544286
3.490000	1.551694
3.491000	1.569087
3.492000	1.570375
3.493000	1.549439
3.494000	1.506279
3.495000	1.481799
3.496000	1.499515
3.497000	1.475680
3.498000	1.401598
3.499000	1.364557
3.500000	1.346520
3.501000	1.345876
3.502000	1.357793
3.503000	1.366490
3.504000	1.376797
3.505000	1.398699
3.506000	1.400309
3.507000	1.390325
3.508000	1.469238
3.509000	1.524316
3.510000	1.445081
3.511000	1.389036
3.512000	1.371643
3.513000	1.358437
3.514000	1.344587
3.515000	1.356183
3.516000	1.365201
3.517000	1.359726
3.518000	1.459575
3.519000	1.600008
3.520000	1.672157
3.521000	1.709520
3.522000	1.728846
3.523000	1.743984
3.524000	1.739153
3.525000	1.739797
3.526000	1.739475
3.527000	1.724337
3.528000	1.713063
3.529000	1.697925
3.530000	1.686974
3.531000	1.675378
3.532000	1.665071
3.533000	1.657019
3.534000	1.654442
3.535000	1.652832
3.536000	1.651221
3.537000	1.657663
3.538000	1.659273
3.539000	1.663139
3.540000	1.661206
3.541000	1.669580
3.542000	1.667648
3.543000	1.661850
3.544000	1.650255
3.545000	1.640592
3.546000	1.627708
3.547000	1.619012
3.548000	1.611281
3.549000	1.604517
3.550000	1.598398
3.551000	1.598075
3.552000	1.600008
3.553000	1.602907
3.554000	1.611281
3.555000	1.609671
3.556000	1.621588
3.557000	1.631251
3.558000	1.631573
3.559000	1.630607
3.560000	1.629319
3.561000	1.615469
3.562000	1.607416
3.563000	1.596143
3.564000	1.589057
3.565000	1.583903
3.566000	1.575529
3.567000	1.572308
3.568000	1.577461
3.569000	1.576817
3.570000	1.580682
3.571000	1.587446
3.572000	1.597431
3.573000	1.603873
3.574000	1.607416
3.575000	1.611926
3.576000	1.614180
3.577000	1.608705
3.578000	1.597109
3.579000	1.589701
3.580000	1.583259
3.581000	1.575851
3.582000	1.565544
3.583000	1.512076
3.584000	1.491462
3.585000	1.534945
3.586000	1.561679
3.587000	1.571986
3.588000	1.580682
3.589000	1.586158
3.590000	1.590345
3.591000	1.575529
3.592000	1.555237
3.593000	1.582937
3.594000	1.590023
3.595000	1.588091
3.596000	1.578106
3.597000	1.574563
3.598000	1.569731
3.599000	1.504668
3.600000	1.476968
3.601000	1.522383
3.602000	1.546862
3.603000	1.562323
3.604000	1.573596
3.605000	1.574240
3.606000	1.587124
3.607000	1.597109
3.608000	1.602907
3.609000	1.610637
3.610000	1.607738
3.611000	1.594532
3.612000	1.587124
3.613000	1.576495
3.614000	1.575207
3.615000	1.560713
3.616000	1.558780
3.617000	1.555559
3.618000	1.553626
3.619000	1.556525
3.620000	1.560713
3.621000	1.566510
3.622000	1.576495
3.623000	1.582615
3.624000	1.593566
3.625000	1.596143
3.626000	1.594210
3.627000	1.585514
3.628000	1.587124
3.629000	1.571342
3.630000	1.561357
3.631000	1.561679
3.632000	1.551694
3.633000	1.549439
3.634000	1.548473
3.635000	1.551050
3.636000	1.556203
3.637000	1.563611
3.638000	1.568121
3.639000	1.576495
3.640000	1.592922
3.641000	1.595177
3.642000	1.596143
3.643000	1.597109
3.644000	1.582615
3.645000	1.574885
3.646000	1.566832
3.647000	1.560390
3.648000	1.551372
3.649000	1.550728
3.650000	1.552660
3.651000	1.546540
3.652000	1.551050
3.653000	1.557492
3.654000	1.564900
3.655000	1.574563
3.656000	1.582615
3.657000	1.591956
3.658000	1.597753
3.659000	1.594855
3.660000	1.590667
3.661000	1.586802
3.662000	1.575529
3.663000	1.570697
3.664000	1.556847
3.665000	1.557169
3.666000	1.547185
3.667000	1.549761
3.668000	1.549439
3.669000	1.554915
3.670000	1.561357
3.671000	1.570697
3.672000	1.572952
3.673000	1.585514
3.674000	1.589379
3.675000	1.595499
3.676000	1.596143
3.677000	1.593566
3.678000	1.582615
3.679000	1.576495
3.680000	1.565866
3.681000	1.553626
3.682000	1.539132
3.683000	1.541387
3.684000	1.547829
3.685000	1.544608
3.686000	1.546540
3.687000	1.554271
3.688000	1.565544
3.689000	1.575207
3.690000	1.581649
3.691000	1.590345
3.692000	1.591634
3.693000	1.590667
3.694000	1.586158
3.695000	1.576495
3.696000	1.568443
3.697000	1.560713
3.698000	1.552982
3.699000	1.549761
3.700000	1.548473
3.701000	1.549761
3.702000	1.555559
3.703000	1.559102
3.704000	1.567477
3.705000	1.573596
3.706000	1.582293
3.707000	1.583259
3.708000	1.587124
3.709000	1.592278
3.710000	1.591634
3.711000	1.587124
3.712000	1.573918
3.713000	1.565866
3.714000	1.555237
3.715000	1.544930
3.716000	1.545252
3.717000	1.546218
3.718000	1.546218
3.719000	1.552338
3.720000	1.559102
3.721000	1.556203
3.722000	1.570053
3.723000	1.583581
3.724000	1.589379
3.725000	1.596465
3.726000	1.596465
3.727000	1.588735
3.728000	1.574240
3.729000	1.566832
3.730000	1.559746
3.731000	1.551372
3.732000	1.550083
3.733000	1.545896
3.734000	1.544930
3.735000	1.548473
3.736000	1.544286
3.737000	1.561679
3.738000	1.565222
3.739000	1.574563
3.740000	1.585192
3.741000	1.592278
3.742000	1.596465
3.743000	1.592922
3.744000	1.586158
3.745000	1.575207
3.746000	1.571664
3.747000	1.557169
3.748000	1.549439
3.749000	1.546218
3.750000	1.544930
3.751000	1.548795
3.752000	1.548151
3.753000	1.556203
3.754000	1.560390
3.755000	1.562001
3.756000	1.575529
3.757000	1.583903
3.758000	1.586158
3.759000	1.584870
3.760000	1.583581
3.761000	1.575207
3.762000	1.567477
3.763000	1.569087
3.764000	1.559102
3.765000	1.550406
3.766000	1.547829
3.767000	1.547185
3.768000	1.544608
3.769000	1.548473
3.770000	1.551372
3.771000	1.561035
3.772000	1.570375
3.773000	1.577461
3.774000	1.583581
3.775000	1.592600
3.776000	1.594532
3.777000	1.588091
3.778000	1.578106
3.779000	1.571342
3.780000	1.563611
3.781000	1.556525
3.782000	1.548473
3.783000	1.547507
3.784000	1.548795
3.785000	1.551694
3.786000	1.554915
3.787000	1.558136
3.788000	1.567477
3.789000	1.570697
3.790000	1.581327
3.791000	1.587124
3.792000	1.594532
3.793000	1.598075
3.794000	1.588735
3.795000	1.576173
3.796000	1.566510
3.797000	1.557814
3.798000	1.551694
3.799000	1.547507
3.800000	1.546218
3.801000	1.549439
3.802000	1.552338
3.803000	1.562001
3.804000	1.567154
3.805000	1.571986
3.806000	1.582937
3.807000	1.591312
3.808000	1.591312
3.809000	1.593566
3.810000	1.588091
3.811000	1.583903
3.812000	1.572308
3.813000	1.567154
3.814000	1.559424
3.815000	1.553304
3.816000	1.552660
3.817000	1.551050
3.818000	1.553304
3.819000	1.552660
3.820000	1.558136
3.821000	1.568121
3.822000	1.573596
3.823000	1.582937
3.824000	1.592600
3.825000	1.596143
3.826000	1.603873
3.827000	1.588091
3.828000	1.583259
3.829000	1.579716
3.830000	1.570053
3.831000	1.564900
3.832000	1.557169
3.833000	1.551050
3.834000	1.549761
3.835000	1.557492
3.836000	1.563933
3.837000	1.568121
3.838000	1.575851
3.839000	1.577461
3.840000	1.586158
3.841000	1.587446
3.842000	1.590667
3.843000	1.590667
3.844000	1.584548
3.845000	1.576173
3.846000	1.565544
3.847000	1.563289
3.848000	1.560068
3.849000	1.554593
3.850000	1.547829
3.851000	1.546218
3.852000	1.548473
3.853000	1.551372
3.854000	1.561035
3.855000	1.561035
3.856000	1.571986
3.857000	1.581327
3.858000	1.585192
3.859000	1.590667
3.860000	1.585836
3.861000	1.578428
3.862000	1.566832
3.863000	1.560068
3.864000	1.555237
3.865000	1.553304
3.866000	1.549761
3.867000	1.545574
3.868000	1.550083
3.869000	1.553626
3.870000	1.564256
3.871000	1.569731
3.872000	1.576495
3.873000	1.587768
3.874000	1.593888
3.875000	1.591634
3.876000	1.594855
3.877000	1.576495
3.878000	1.581649
3.879000	1.570375
3.880000	1.559746
3.881000	1.556525
3.882000	1.550406
3.883000	1.548795
3.884000	1.548795
3.885000	1.555559
3.886000	1.559424
3.887000	1.562001
3.888000	1.572308
3.889000	1.577784
3.890000	1.589701
3.891000	1.590667
3.892000	1.598075
3.893000	1.596143
3.894000	1.587446
3.895000	1.583581
3.896000	1.568443
3.897000	1.562323
3.898000	1.557492
3.899000	1.551694
3.900000	1.547507
3.901000	1.548473
3.902000	1.549439
3.903000	1.550083
3.904000	1.561035
3.905000	1.563289
3.906000	1.568765
3.907000	1.580038
3.908000	1.585836
3.909000	1.587768
3.910000	1.581004
3.911000	1.573596
3.912000	1.565222
3.913000	1.558136
3.914000	1.554271
3.915000	1.548473
3.916000	1.549761
3.917000	1.547185
3.918000	1.548151
3.919000	1.550083
3.920000	1.551050
3.921000	1.558780
3.922000	1.567799
3.923000	1.577784
3.924000	1.582937
3.925000	1.593244
3.926000	1.586158
3.927000	1.581971
3.928000	1.576817
3.929000	1.564900
3.930000	1.554593
3.931000	1.552982
3.932000	1.548473
3.933000	1.547185
3.934000	1.547507
3.935000	1.557169
3.936000	1.557814
3.937000	1.556525
3.938000	1.560390
3.939000	1.563611
3.940000	1.574885
3.941000	1.574563
3.942000	1.581327
3.943000	1.581327
3.944000	1.569409
3.945000	1.566832
3.946000	1.559424
3.947000	1.548795
3.948000	1.541709
3.949000	1.544608
3.950000	1.544286
3.951000	1.543964
3.952000	1.549439
3.953000	1.556203
3.954000	1.561035
3.955000	1.567154
3.956000	1.573918
3.957000	1.581649
3.958000	1.582615
3.959000	1.585836
3.960000	1.581971
3.961000	1.577784
3.962000	1.573596
3.963000	1.559746
3.964000	1.552982
3.965000	1.550406
3.966000	1.547185
3.967000	1.549761
3.968000	1.552660
3.969000	1.555559
3.970000	1.560713
3.971000	1.568765
3.972000	1.579072
3.973000	1.587768
3.974000	1.594210
3.975000	1.595177
3.976000	1.598720
3.977000	1.587446
3.978000	1.581649
3.979000	1.578428
3.980000	1.571664
3.981000	1.561357
3.982000	1.559102
3.983000	1.558458
3.984000	1.556525
3.985000	1.558458
3.986000	1.556203
3.987000	1.562645
3.988000	1.574885
3.989000	1.583903
3.990000	1.593566
3.991000	1.600008
3.992000	1.599686
3.993000	1.592600
3.994000	1.585514
3.995000	1.577784
3.996000	1.575207
3.997000	1.569087
3.998000	1.554915
3.999000	1.550083
4.000000	1.553626
4.001000	1.557492
4.002000	1.553304
4.003000	1.559746
4.004000	1.564900
4.005000	1.572630
4.006000	1.581004
4.007000	1.585836
4.008000	1.590023
4.009000	1.590989
4.010000	1.587124
4.011000	1.579072
4.012000	1.575851
4.013000	1.515619
4.014000	1.484054
4.015000	1.520129
4.016000	1.537200
4.017000	1.545896
4.018000	1.547829
4.019000	1.552982
4.020000	1.565866
4.021000	1.506923
4.022000	1.491140
4.023000	1.547185
4.024000	1.576173
4.025000	1.586802
4.026000	1.598398
4.027000	1.588413
4.028000	1.580038
4.029000	1.571986
4.030000	1.564256
4.031000	1.560713
4.032000	1.557814
4.033000	1.440249
4.034000	1.403530
4.035000	1.492751
4.036000	1.533334
4.037000	1.565222
4.038000	1.578428
4.039000	1.594210
4.040000	1.606450
4.041000	1.608705
4.042000	1.610959
4.043000	1.605162
4.044000	1.591634
4.045000	1.580360
4.046000	1.578750
4.047000	1.570697
4.048000	1.561357
4.049000	1.561035
4.050000	1.564900
4.051000	1.557492
4.052000	1.559102
4.053000	1.566188
4.054000	1.562967
4.055000	1.574563
4.056000	1.582615
4.057000	1.590345
4.058000	1.590023
4.059000	1.593888
4.060000	1.590023
4.061000	1.586158
4.062000	1.579072
4.063000	1.566188
4.064000	1.558136
4.065000	1.559102
4.066000	1.553949
4.067000	1.550406
4.068000	1.553626
4.069000	1.557814
4.070000	1.562645
4.071000	1.568765
4.072000	1.575529
4.073000	1.533334
4.074000	1.519807
4.075000	1.564900
4.076000	1.581649
4.077000	1.586480
4.078000	1.582615
4.079000	1.576173
4.080000	1.571020
4.081000	1.563611
4.082000	1.487275
4.083000	1.465373
4.084000	1.517874
4.085000	1.546862
4.086000	1.561357
4.087000	1.569087
4.088000	1.581649
4.089000	1.590667
4.090000	1.601619
4.091000	1.605162
4.092000	1.616113
4.093000	1.540421
4.094000	1.509177
4.095000	1.554593
4.096000	1.567799
4.097000	1.571664
4.098000	1.566188
4.099000	1.565866
4.100000	1.568765
4.101000	1.566832
4.102000	1.572630
4.103000	1.576817
4.104000	1.581004
4.105000	1.590989
4.106000	1.598398
4.107000	1.607416
4.108000	1.609671
4.109000	1.610637
4.110000	1.609349
4.111000	1.604195
4.112000	1.592600
4.113000	1.510466
4.114000	1.470526
4.115000	1.518840
4.116000	1.543642
4.117000	1.557492
4.118000	1.562323
4.119000	1.576495
4.120000	1.580038
4.121000	1.581971
4.122000	1.581004
4.123000	1.597109
4.124000	1.598398
4.125000	1.606128
4.126000	1.606772
4.127000	1.598720
4.128000	1.597109
4.129000	1.585836
4.130000	1.571664
4.131000	1.564578
4.132000	1.566510
4.133000	1.558458
4.134000	1.556203
4.135000	1.558458
4.136000	1.561679
4.137000	1.570697
4.138000	1.573596
4.139000	1.584225
4.140000	1.594210
4.141000	1.593244
4.142000	1.595499
4.143000	1.592922
4.144000	1.584870
4.145000	1.579072
4.146000	1.569409
4.147000	1.562645
4.148000	1.553949
4.149000	1.549761
4.150000	1.551372
4.151000	1.552338
4.152000	1.556847
4.153000	1.566510
4.154000	1.566832
4.155000	1.570697
4.156000	1.582937
4.157000	1.587768
4.158000	1.591312
4.159000	1.594855
4.160000	1.590667
4.161000	1.587124
4.162000	1.567799
4.163000	1.562001
4.164000	1.553626
4.165000	1.547829
4.166000	1.547185
4.167000	1.544930
4.168000	1.540421
4.169000	1.549439
4.170000	1.557814
4.171000	1.565866
4.172000	1.576173
4.173000	1.581649
4.174000	1.589379
4.175000	1.591312
4.176000	1.598075
4.177000	1.590023
4.178000	1.585836
4.179000	1.580038
4.180000	1.567799
4.181000	1.556847
4.182000	1.551694
4.183000	1.550406
4.184000	1.546218
4.185000	1.545896
4.186000	1.556847
4.187000	1.565222
4.188000	1.573918
4.189000	1.575207
4.190000	1.575851
4.191000	1.580038
4.192000	1.585836
4.193000	1.581649
4.194000	1.572952
4.195000	1.567477
4.196000	1.554593
4.197000	1.555559
4.198000	1.547185
4.199000	1.548473
4.200000	1.545252
4.201000	1.543964
4.202000	1.551372
4.203000	1.558458
4.204000	1.566832
4.205000	1.578428
4.206000	1.581649
4.207000	1.591312
4.208000	1.596465
4.209000	1.595177
4.210000	1.591312
4.211000	1.577784
4.212000	1.571664
4.213000	1.561679
4.214000	1.563933
4.215000	1.554593
4.216000	1.551694
4.217000	1.550406
4.218000	1.550083
4.219000	1.554915
4.220000	1.558780
4.221000	1.565222
4.222000	1.568443
4.223000	1.581327
4.224000	1.586480
4.225000	1.587768
4.226000	1.588413
4.227000	1.584548
4.228000	1.573274
4.229000	1.567154
4.230000	1.560068
4.231000	1.551050
4.232000	1.549761
4.233000	1.548473
4.234000	1.545896
4.235000	1.550728
4.236000	1.554271
4.237000	1.562967
4.238000	1.573918
4.239000	1.579394
4.240000	1.536555
4.241000	1.517874
4.242000	1.560390
4.243000	1.570697
4.244000	1.573596
4.245000	1.571664
4.246000	1.567477
4.247000	1.559102
4.248000	1.558458
4.249000	1.554271
4.250000	1.553949
4.251000	1.555881
4.252000	1.559102
4.253000	1.483732
4.254000	1.463440
4.255000	1.526571
4.256000	1.564900
4.257000	1.586158
4.258000	1.596143
4.259000	1.597431
4.260000	1.595821
4.261000	1.589057
4.262000	1.579394
4.263000	1.500159
4.264000	1.475680
4.265000	1.518518
4.266000	1.547507
4.267000	1.554915
4.268000	1.564578
4.269000	1.575529
4.270000	1.578106
4.271000	1.543319
4.272000	1.533979
4.273000	1.571986
4.274000	1.593244
4.275000	1.602585
4.276000	1.609671
4.277000	1.601296
4.278000	1.593888
4.279000	1.580682
4.280000	1.573596
4.281000	1.573596
4.282000	1.562645
4.283000	1.564256
4.284000	1.563289
4.285000	1.568765
4.286000	1.568121
4.287000	1.572630
4.288000	1.578750
4.289000	1.591312
4.290000	1.594855
4.291000	1.596143
4.292000	1.602585
4.293000	1.598720
4.294000	1.594532
4.295000	1.584225
4.296000	1.569731
4.297000	1.565222
4.298000	1.552982
4.299000	1.553626
4.300000	1.552982
4.301000	1.553304
4.302000	1.556847
4.303000	1.565222
4.304000	1.572308
4.305000	1.580360
4.306000	1.587768
4.307000	1.590345
4.308000	1.598075
4.309000	1.596465
4.310000	1.585514
4.311000	1.584870
4.312000	1.574885
4.313000	1.568121
4.314000	1.559424
4.315000	1.554915
4.316000	1.551050
4.317000	1.551372
4.318000	1.553949
4.319000	1.561357
4.320000	1.567154
4.321000	1.574563
4.322000	1.587124
4.323000	1.499192
4.324000	1.459897
4.325000	1.536555
4.326000	1.571664
4.327000	1.579716
4.328000	1.583259
4.329000	1.581971
4.330000	1.572630
4.331000	1.562323
4.332000	1.562001
4.333000	1.561035
4.334000	1.562001
4.335000	1.566510
4.336000	1.570053
4.337000	1.567154
4.338000	1.574240
4.339000	1.584870
4.340000	1.592922
4.341000	1.600008
4.342000	1.599364
4.343000	1.594532
4.344000	1.593888
4.345000	1.581649
4.346000	1.565866
4.347000	1.562001
4.348000	1.554915
4.349000	1.553626
4.350000	1.549439
4.351000	1.552660
4.352000	1.552338
4.353000	1.495972
4.354000	1.475357
4.355000	1.530114
4.356000	1.570053
4.357000	1.589379
4.358000	1.593244
4.359000	1.598398
4.360000	1.592278
4.361000	1.590667
4.362000	1.581327
4.363000	1.576495
4.364000	1.563611
4.365000	1.559746
4.366000	1.556203
4.367000	1.550083
4.368000	1.555559
4.369000	1.559424
4.370000	1.565222
4.371000	1.574240
4.372000	1.581649
4.373000	1.593566
4.374000	1.594210
4.375000	1.599364
4.376000	1.597753
4.377000	1.589701
4.378000	1.586158
4.379000	1.575207
4.380000	1.562967
4.381000	1.559102
4.382000	1.558136
4.383000	1.552016
4.384000	1.550728
4.385000	1.556203
4.386000	1.561357
4.387000	1.567477
4.388000	1.574563
4.389000	1.582937
4.390000	1.587124
4.391000	1.592600
4.392000	1.595499
4.393000	1.589057
4.394000	1.585192
4.395000	1.575207
4.396000	1.567154
4.397000	1.559102
4.398000	1.552660
4.399000	1.550406
4.400000	1.549117
4.401000	1.550728
4.402000	1.550728
4.403000	1.556525
4.404000	1.569731
4.405000	1.576173
4.406000	1.580360
4.407000	1.596787
4.408000	1.591312
4.409000	1.592600
4.410000	1.590989
4.411000	1.579394
4.412000	1.576495
4.413000	1.500803
4.414000	1.466339
4.415000	1.511110
4.416000	1.533012
4.417000	1.544608
4.418000	1.545574
4.419000	1.561357
4.420000	1.567154
4.421000	1.572630
4.422000	1.582293
4.423000	1.594855
4.424000	1.600330
4.425000	1.598398
4.426000	1.540421
4.427000	1.517552
4.428000	1.551694
4.429000	1.555559
4.430000	1.561035
4.431000	1.500159
4.432000	1.476968
4.433000	1.524638
4.434000	1.545896
4.435000	1.560068
4.436000	1.496938
4.437000	1.476646
4.438000	1.543319
4.439000	1.577461
4.440000	1.597109
4.441000	1.562001
4.442000	1.549439
4.443000	1.583903
4.444000	1.589379
4.445000	1.592922
4.446000	1.533012
4.447000	1.504990
4.448000	1.545574
4.449000	1.563289
4.450000	1.569731
4.451000	1.568443
4.452000	1.573596
4.453000	1.576495
4.454000	1.585514
4.455000	1.565866
4.456000	1.547507
4.457000	1.558136
4.458000	1.589701
4.459000	1.604839
4.460000	1.607416
4.461000	1.572308
4.462000	1.554915
4.463000	1.536878
4.464000	1.528825
4.465000	1.556203
4.466000	1.557492
4.467000	1.563289
4.468000	1.568765
4.469000	1.579072
4.470000	1.583903
4.471000	1.591956
4.472000	1.599686
4.473000	1.531724
4.474000	1.508211
4.475000	1.569087
4.476000	1.597753
4.477000	1.598720
4.478000	1.596143
4.479000	1.590989
4.480000	1.583903
4.481000	1.574240
4.482000	1.567477
4.483000	1.568765
4.484000	1.569087
4.485000	1.573918
4.486000	1.578428
4.487000	1.580360
4.488000	1.589701
4.489000	1.595177
4.490000	1.608060
4.491000	1.606128
4.492000	1.607738
4.493000	1.604839
4.494000	1.599364
4.495000	1.590667
4.496000	1.578428
4.497000	1.572630
4.498000	1.561679
4.499000	1.562967
4.500000	1.561035
4.501000	1.562323
4.502000	1.565222
4.503000	1.571986
4.504000	1.574240
4.505000	1.583581
4.506000	1.594210
4.507000	1.596787
4.508000	1.596143
4.509000	1.602907
4.510000	1.595821
4.511000	1.590345
4.512000	1.580038
4.513000	1.571342
4.514000	1.553304
4.515000	1.555559
4.516000	1.552660
4.517000	1.550728
4.518000	1.551050
4.519000	1.552982
4.520000	1.558458
4.521000	1.573596
4.522000	1.581004
4.523000	1.587446
4.524000	1.589057
4.525000	1.585514
4.526000	1.584225
4.527000	1.581327
4.528000	1.574885
4.529000	1.565866
4.530000	1.556203
4.531000	1.548473
4.532000	1.545896
4.533000	1.546862
4.534000	1.541709
4.535000	1.552660
4.536000	1.555559
4.537000	1.563611
4.538000	1.566832
4.539000	1.578106
4.540000	1.589057
4.541000	1.593888
4.542000	1.600008
4.543000	1.588413
4.544000	1.581649
4.545000	1.578750
4.546000	1.570697
4.547000	1.562001
4.548000	1.557492
4.549000	1.558136
4.550000	1.555881
4.551000	1.557492
4.552000	1.562001
4.553000	1.571342
4.554000	1.580360
4.555000	1.583903
4.556000	1.590023
4.557000	1.599686
4.558000	1.599686
4.559000	1.598720
4.560000	1.593244
4.561000	1.584548
4.562000	1.572308
4.563000	1.567477
4.564000	1.556203
4.565000	1.548151
4.566000	1.547829
4.567000	1.546540
4.568000	1.553304
4.569000	1.559424
4.570000	1.557814
4.571000	1.569409
4.572000	1.576817
4.573000	1.582615
4.574000	1.591956
4.575000	1.592278
4.576000	1.589379
4.577000	1.581971
4.578000	1.566510
4.579000	1.563933
4.580000	1.562967
4.581000	1.551372
4.582000	1.550728
4.583000	1.543642
4.584000	1.543964
4.585000	1.549117
4.586000	1.552016
4.587000	1.562001
4.588000	1.573274
4.589000	1.580682
4.590000	1.586158
4.591000	1.584870
4.592000	1.591956
4.593000	1.582937
4.594000	1.578428
4.595000	1.569409
4.596000	1.561035
4.597000	1.554915
4.598000	1.548151
4.599000	1.548151
4.600000	1.543964
4.601000	1.543642
4.602000	1.551372
4.603000	1.554593
4.604000	1.562967
4.605000	1.570375
4.606000	1.578428
4.607000	1.585514
4.608000	1.590667
4.609000	1.594532
4.610000	1.581327
4.611000	1.574563
4.612000	1.564256
4.613000	1.556847
4.614000	1.556203
4.615000	1.548795
4.616000	1.544930
4.617000	1.550406
4.618000	1.551694
4.619000	1.557492
4.620000	1.562001
4.621000	1.567799
4.622000	1.576173
4.623000	1.582615
4.624000	1.588735
4.625000	1.596787
4.626000	1.590989
4.627000	1.586158
4.628000	1.573274
4.629000	1.566188
4.630000	1.555559
4.631000	1.548151
4.632000	1.546862
4.633000	1.548151
4.634000	1.548795
4.635000	1.553949
4.636000	1.563933
4.637000	1.559746
4.638000	1.566510
4.639000	1.577461
4.640000	1.585192
4.641000	1.585514
4.642000	1.588413
4.643000	1.579716
4.644000	1.577139
4.645000	1.568765
4.646000	1.561679
4.647000	1.555559
4.648000	1.546862
4.649000	1.545252
4.650000	1.551694
4.651000	1.552016
4.652000	1.552660
4.653000	1.560390
4.654000	1.571342
4.655000	1.576817
4.656000	1.585192
4.657000	1.590989
4.658000	1.592600
4.659000	1.593888
4.660000	1.586802
4.661000	1.586480
4.662000	1.575207
4.663000	1.567154
4.664000	1.559424
4.665000	1.558458
4.666000	1.550406
4.667000	1.548473
4.668000	1.553304
4.669000	1.557169
4.670000	1.559424
4.671000	1.571664
4.672000	1.586480
4.673000	1.589379
4.674000	1.589379
4.675000	1.593244
4.676000	1.589701
4.677000	1.578750
4.678000	1.571342
4.679000	1.564578
4.680000	1.554271
4.681000	1.553949
4.682000	1.548151
4.683000	1.552338
4.684000	1.546540
4.685000	1.554271
4.686000	1.561357
4.687000	1.561679
4.688000	1.569087
4.689000	1.581327
4.690000	1.587124
4.691000	1.586480
4.692000	1.590667
4.693000	1.583903
4.694000	1.576495
4.695000	1.569409
4.696000	1.564578
4.697000	1.555881
4.698000	1.548473
4.699000	1.537522
4.700000	1.544286
4.701000	1.549439
4.702000	1.554271
4.703000	1.558780
4.704000	1.564578
4.705000	1.573274
4.706000	1.575851
4.707000	1.579072
4.708000	1.587768
4.709000	1.591312
4.710000	1.581004
4.711000	1.577784
4.712000	1.568121
4.713000	1.560713
4.714000	1.553304
4.715000	1.551372
4.716000	1.544930
4.717000	1.550083
4.718000	1.552660
4.719000	1.554593
4.720000	1.560068
4.721000	1.567154
4.722000	1.575529
4.723000	1.583903
4.724000	1.585836
4.725000	1.588735
4.726000	1.585192
4.727000	1.580038
4.728000	1.572630
4.729000	1.568121
4.730000	1.555559
4.731000	1.552016
4.732000	1.552016
4.733000	1.552660
4.734000	1.550728
4.735000	1.557492
4.736000	1.563933
4.737000	1.567154
4.738000	1.564256
4.739000	1.578750
4.740000	1.586802
4.741000	1.590345
4.742000	1.598398
4.743000	1.594210
4.744000	1.582293
4.745000	1.574563
4.746000	1.566188
4.747000	1.557169
4.748000	1.551372
4.749000	1.550728
4.750000	1.545574
4.751000	1.543642
4.752000	1.548473
4.753000	1.553626
4.754000	1.562323
4.755000	1.566832
4.756000	1.573918
4.757000	1.586158
4.758000	1.589379
4.759000	1.588735
4.760000	1.583903
4.761000	1.576817
4.762000	1.568443
4.763000	1.562645
4.764000	1.554593
4.765000	1.553626
4.766000	1.549761
4.767000	1.543319
4.768000	1.547829
4.769000	1.551694
4.770000	1.557814
4.771000	1.563933
4.772000	1.573918
4.773000	1.581971
4.774000	1.586802
4.775000	1.592922
4.776000	1.587768
4.777000	1.583259
4.778000	1.574563
4.779000	1.562323
4.780000	1.553949
4.781000	1.550728
4.782000	1.549439
4.783000	1.547185
4.784000	1.546540
4.785000	1.547185
4.786000	1.561357
4.787000	1.563933
4.788000	1.567154
4.789000	1.580682
4.790000	1.587768
4.791000	1.590023
4.792000	1.595821
4.793000	1.586802
4.794000	1.581004
4.795000	1.571986
4.796000	1.565544
4.797000	1.555559
4.798000	1.549761
4.799000	1.550083
4.800000	1.552016
4.801000	1.552982
4.802000	1.560713
4.803000	1.557814
4.804000	1.568121
4.805000	1.577139
4.806000	1.586802
4.807000	1.594210
4.808000	1.593888
4.809000	1.593888
4.810000	1.590345
4.811000	1.576495
4.812000	1.567154
4.813000	1.564900
4.814000	1.554915
4.815000	1.552338
4.816000	1.548795
4.817000	1.551694
4.818000	1.550728
4.819000	1.559102
4.820000	1.563289
4.821000	1.569731
4.822000	1.583259
4.823000	1.593566
4.824000	1.592600
4.825000	1.595821
4.826000	1.591634
4.827000	1.588091
4.828000	1.577461
4.829000	1.565222
4.830000	1.558136
4.831000	1.558136
4.832000	1.548473
4.833000	1.549439
4.834000	1.546862
4.835000	1.557814
4.836000	1.561357
4.837000	1.568765
4.838000	1.576817
4.839000	1.581971
4.840000	1.590023
4.841000	1.591634
4.842000	1.593566
4.843000	1.587124
4.844000	1.582293
4.845000	1.577139
4.846000	1.567154
4.847000	1.563933
4.848000	1.550728
4.849000	1.548151
4.850000	1.543319
4.851000	1.550406
4.852000	1.552016
4.853000	1.559424
4.854000	1.566832
4.855000	1.574563
4.856000	1.584870
4.857000	1.585192
4.858000	1.590667
4.859000	1.596787
4.860000	1.584225
4.861000	1.575207
4.862000	1.567477
4.863000	1.559424
4.864000	1.552660
4.865000	1.556847
4.866000	1.548795
4.867000	1.546862
4.868000	1.555237
4.869000	1.558780
4.870000	1.564578
4.871000	1.571342
4.872000	1.581327
4.873000	1.583903
4.874000	1.592278
4.875000	1.595177
4.876000	1.593244
4.877000	1.581649
4.878000	1.575529
4.879000	1.567799
4.880000	1.562323
4.881000	1.552338
4.882000	1.552982
4.883000	1.546862
4.884000	1.551050
4.885000	1.554915
4.886000	1.566510
4.887000	1.569731
4.888000	1.580682
4.889000	1.580682
4.890000	1.590989
4.891000	1.594532
4.892000	1.596143
4.893000	1.588735
4.894000	1.581004
4.895000	1.568765
4.896000	1.561035
4.897000	1.552660
4.898000	1.543642
4.899000	1.542997
4.900000	1.545574
4.901000	1.558458
4.902000	1.555237
4.903000	1.560713
4.904000	1.567154
4.905000	1.577139
4.906000	1.581327
4.907000	1.587124
4.908000	1.588413
4.909000	1.587124
4.910000	1.585836
4.911000	1.572630
4.912000	1.572952
4.913000	1.562323
4.914000	1.553626
4.915000	1.548151
4.916000	1.542031
4.917000	1.545574
4.918000	1.546540
4.919000	1.553949
4.920000	1.559102
4.921000	1.567799
4.922000	1.572952
4.923000	1.586158
4.924000	1.589701
4.925000	1.594532
4.926000	1.589057
4.927000	1.587124
4.928000	1.573918
4.929000	1.565866
4.930000	1.560713
4.931000	1.551694
4.932000	1.546862
4.933000	1.545252
4.934000	1.549439
4.935000	1.552982
4.936000	1.560068
4.937000	1.567154
4.938000	1.574563
4.939000	1.584225
4.940000	1.597753
4.941000	1.595177
4.942000	1.597431
4.943000	1.586480
4.944000	1.580682
4.945000	1.568121
4.946000	1.563611
4.947000	1.552660
4.948000	1.556525
4.949000	1.549439
4.950000	1.548151
4.951000	1.552338
4.952000	1.551372
4.953000	1.561357
4.954000	1.566832
4.955000	1.576817
4.956000	1.584225
4.957000	1.590667
4.958000	1.588735
4.959000	1.591956
4.960000	1.590023
4.961000	1.580682
4.962000	1.575207
4.963000	1.571664
4.964000	1.563933
4.965000	1.557814
4.966000	1.556203
4.967000	1.551050
4.968000	1.552338
4.969000	1.550406
4.970000	1.562323
4.971000	1.569087
4.972000	1.576817
4.973000	1.584225
4.974000	1.588735
4.975000	1.592922
4.976000	1.583903
4.977000	1.581004
4.978000	1.573918
4.979000	1.563933
4.980000	1.560068
4.981000	1.556203
4.982000	1.550406
4.983000	1.544930
4.984000	1.545896
4.985000	1.550728
4.986000	1.559102
4.987000	1.560068
4.988000	1.564900
4.989000	1.574240
4.990000	1.578750
4.991000	1.582293
4.992000	1.585836
4.993000	1.584225
4.994000	1.572630
4.995000	1.563611
4.996000	1.561357
4.997000	1.552982
4.998000	1.543642
4.999000	1.541709
5.000000	1.542353
5.001000	1.545896
5.002000	1.548795
5.003000	1.557814
5.004000	1.564900
5.005000	1.573596
5.006000	1.580682
5.007000	1.583259
5.008000	1.588413
5.009000	1.588735
5.010000	1.584225
5.011000	1.576495
5.012000	1.572308
5.013000	1.562645
5.014000	1.562967
5.015000	1.551050
5.016000	1.550083
5.017000	1.548795
5.018000	1.552982
5.019000	1.552016
5.020000	1.563611
5.021000	1.568765
5.022000	1.576817
5.023000	1.586480
5.024000	1.593244
5.025000	1.597109
5.026000	1.586480
5.027000	1.581004
5.028000	1.572308
5.029000	1.565544
5.030000	1.559102
5.031000	1.554915
5.032000	1.548473
5.033000	1.547829
5.034000	1.548795
5.035000	1.551050
5.036000	1.562323
5.037000	1.565222
5.038000	1.574240
5.039000	1.580682
5.040000	1.590667
5.041000	1.599686
5.042000	1.597109
5.043000	1.590989
5.044000	1.580682
5.045000	1.574240
5.046000	1.566188
5.047000	1.560713
5.048000	1.556525
5.049000	1.553304
5.050000	1.550083
5.051000	1.551694
5.052000	1.546862
5.053000	1.556525
5.054000	1.561035
5.055000	1.572308
5.056000	1.581327
5.057000	1.590667
5.058000	1.590667
5.059000	1.590667
5.060000	1.586802
5.061000	1.577461
5.062000	1.567477
5.063000	1.565544
5.064000	1.560068
5.065000	1.559746
5.066000	1.555237
5.067000	1.545574
5.068000	1.552338
5.069000	1.556847
5.070000	1.565222
5.071000	1.571342
5.072000	1.576173
5.073000	1.583903
5.074000	1.588735
5.075000	1.592922
5.076000	1.589057
5.077000	1.581327
5.078000	1.571020
5.079000	1.566510
5.080000	1.561679
5.081000	1.552016
5.082000	1.551694
5.083000	1.552982
5.084000	1.555559
5.085000	1.557492
5.086000	1.561679
5.087000	1.568443
5.088000	1.570697
5.089000	1.579716
5.090000	1.581649
5.091000	1.588735
5.092000	1.587768
5.093000	1.583581
5.094000	1.579072
5.095000	1.568443
5.096000	1.562967
5.097000	1.560068
5.098000	1.550728
5.099000	1.548795
5.100000	1.547507
5.101000	1.551694
5.102000	1.553304
5.103000	1.566832
5.104000	1.570697
5.105000	1.578750
5.106000	1.588091
5.107000	1.594532
5.108000	1.597109
5.109000	1.592278
5.110000	1.582615
5.111000	1.573918
5.112000	1.566510
5.113000	1.559102
5.114000	1.550406
5.115000	1.549439
5.116000	1.542675
5.117000	1.548151
5.118000	1.557169
5.119000	1.560713
5.120000	1.568121
5.121000	1.573918
5.122000	1.586802
5.123000	1.588735
5.124000	1.588091
5.125000	1.589057
5.126000	1.586802
5.127000	1.575207
5.128000	1.571664
5.129000	1.566188
5.130000	1.558458
5.131000	1.556203
5.132000	1.551372
5.133000	1.544930
5.134000	1.546218
5.135000	1.551694
5.136000	1.558136
5.137000	1.567154
5.138000	1.575851
5.139000	1.583903
5.140000	1.589057
5.141000	1.595177
5.142000	1.592278
5.143000	1.583903
5.144000	1.576173
5.145000	1.567477
5.146000	1.558780
5.147000	1.548151
5.148000	1.545574
5.149000	1.548473
5.150000	1.541387
5.151000	1.548473
5.152000	1.550406
5.153000	1.562323
5.154000	1.570697
5.155000	1.577461
5.156000	1.586802
5.157000	1.590345
5.158000	1.590989
5.159000	1.586158
5.160000	1.584225
5.161000	1.572630
5.162000	1.564578
5.163000	1.555237
5.164000	1.549439
5.165000	1.547829
5.166000	1.551694
5.167000	1.549439
5.168000	1.551694
5.169000	1.557169
5.170000	1.564256
5.171000	1.572952
5.172000	1.580038
5.173000	1.584548
5.174000	1.587446
5.175000	1.589379
5.176000	1.583581
5.177000	1.581327
5.178000	1.572308
5.179000	1.562967
5.180000	1.556847
5.181000	1.548151
5.182000	1.548473
5.183000	1.550728
5.184000	1.548795
5.185000	1.556847
5.186000	1.570375
5.187000	1.565544
5.188000	1.572952
5.189000	1.580682
5.190000	1.590667
5.191000	1.592922
5.192000	1.595177
5.193000	1.591634
5.194000	1.581327
5.195000	1.575207
5.196000	1.563611
5.197000	1.558458
5.198000	1.551050
5.199000	1.545574
5.200000	1.546862
5.201000	1.549117
5.202000	1.555237
5.203000	1.558458
5.204000	1.566832
5.205000	1.577461
5.206000	1.587768
5.207000	1.588413
5.208000	1.589379
5.209000	1.587446
5.210000	1.580682
5.211000	1.578428
5.212000	1.565222
5.213000	1.561679
5.214000	1.551694
5.215000	1.558136
5.216000	1.550083
5.217000	1.552016
5.218000	1.554593
5.219000	1.562967
5.220000	1.566188
5.221000	1.575207
5.222000	1.584225
5.223000	1.588735
5.224000	1.596143
5.225000	1.591634
5.226000	1.587768
5.227000	1.583581
5.228000	1.575207
5.229000	1.568121
5.230000	1.561357
5.231000	1.552660
5.232000	1.551694
5.233000	1.553304
5.234000	1.555237
5.235000	1.562323
5.236000	1.560068
5.237000	1.567154
5.238000	1.577784
5.239000	1.585836
5.240000	1.595821
5.241000	1.600330
5.242000	1.593888
5.243000	1.586158
5.244000	1.580360
5.245000	1.572952
5.246000	1.561035
5.247000	1.551050
5.248000	1.542997
5.249000	1.543319
5.250000	1.546862
5.251000	1.548473
5.252000	1.543964
5.253000	1.565222
5.254000	1.568765
5.255000	1.576495
5.256000	1.587446
5.257000	1.592278
5.258000	1.594532
5.259000	1.590667
5.260000	1.580360
5.261000	1.575529
5.262000	1.567477
5.263000	1.563289
5.264000	1.553304
5.265000	1.551372
5.266000	1.553949
5.267000	1.553626
5.268000	1.551050
5.269000	1.556847
5.270000	1.560068
5.271000	1.566832
5.272000	1.575851
5.273000	1.585836
5.274000	1.589701
5.275000	1.587124
5.276000	1.585836
5.277000	1.578428
5.278000	1.568765
5.279000	1.561035
5.280000	1.552660
5.281000	1.548151
5.282000	1.546218
5.283000	1.546218
5.284000	1.548151
5.285000	1.560068
5.286000	1.558780
5.287000	1.564256
5.288000	1.569731
5.289000	1.580682
5.290000	1.590023
5.291000	1.585514
5.292000	1.587768
5.293000	1.585514
5.294000	1.580360
5.295000	1.571020
5.296000	1.563933
5.297000	1.560713
5.298000	1.552982
5.299000	1.549439
5.300000	1.544930
5.301000	1.549439
5.302000	1.553949
5.303000	1.559746
5.304000	1.567799
5.305000	1.576173
5.306000	1.582293
5.307000	1.587768
5.308000	1.592600
5.309000	1.590023
5.310000	1.578106
5.311000	1.574240
5.312000	1.568765
5.313000	1.565544
5.314000	1.554915
5.315000	1.548473
5.316000	1.545896
5.317000	1.552660
5.318000	1.553304
5.319000	1.559424
5.320000	1.559102
5.321000	1.569731
5.322000	1.582937
5.323000	1.590023
5.324000	1.590667
5.325000	1.594210
5.326000	1.585836
5.327000	1.578106
5.328000	1.569087
5.329000	1.564900
5.330000	1.556525
5.331000	1.550728
5.332000	1.545896
5.333000	1.542031
5.334000	1.547507
5.335000	1.553626
5.336000	1.558780
5.337000	1.567477
5.338000	1.576817
5.339000	1.584870
5.340000	1.588413
5.341000	1.595499
5.342000	1.596465
5.343000	1.589379
5.344000	1.578428
5.345000	1.566832
5.346000	1.558780
5.347000	1.553626
5.348000	1.550728
5.349000	1.544930
5.350000	1.545896
5.351000	1.551050
5.352000	1.557492
5.353000	1.565222
5.354000	1.568765
5.355000	1.575529
5.356000	1.586158
5.357000	1.593244
5.358000	1.596465
5.359000	1.594210
5.360000	1.584225
5.361000	1.577139
5.362000	1.569087
5.363000	1.559102
5.364000	1.555237
5.365000	1.555559
5.366000	1.552338
5.367000	1.552982
5.368000	1.559424
5.369000	1.564578
5.370000	1.566188
5.371000	1.578428
5.372000	1.580360
5.373000	1.585514
5.374000	1.592922
5.375000	1.594532
5.376000	1.586480
5.377000	1.575529
5.378000	1.569087
5.379000	1.567799
5.380000	1.555881
5.381000	1.552660
5.382000	1.546540
5.383000	1.546218
5.384000	1.551694
5.385000	1.547507
5.386000	1.560713
5.387000	1.564900
5.388000	1.572630
5.389000	1.578750
5.390000	1.586480
5.391000	1.594532
5.392000	1.592278
5.393000	1.585836
5.394000	1.576817
5.395000	1.570375
5.396000	1.559424
5.397000	1.553304
5.398000	1.550728
5.399000	1.545574
5.400000	1.546218
5.401000	1.546862
5.402000	1.558136
5.403000	1.560390
5.404000	1.561679
5.405000	1.571986
5.406000	1.581971
5.407000	1.587768
5.408000	1.590023
5.409000	1.589701
5.410000	1.582615
5.411000	1.573274
5.412000	1.566832
5.413000	1.560068
5.414000	1.552660
5.415000	1.550406
5.416000	1.545252
5.417000	1.548473
5.418000	1.555237
5.419000	1.559102
5.420000	1.566832
5.421000	1.573918
5.422000	1.580682
5.423000	1.588413
5.424000	1.587124
5.425000	1.592278
5.426000	1.583903
5.427000	1.581327
5.428000	1.571664
5.429000	1.564900
5.430000	1.559424
5.431000	1.554593
5.432000	1.553949
5.433000	1.549439
5.434000	1.551050
5.435000	1.554915
5.436000	1.556203
5.437000	1.561357
5.438000	1.575529
5.439000	1.585192
5.440000	1.591634
5.441000	1.590345
5.442000	1.590989
5.443000	1.585192
5.444000	1.577784
5.445000	1.567477
5.446000	1.562645
5.447000	1.555559
5.448000	1.549117
5.449000	1.548151
5.450000	1.549117
5.451000	1.553304
5.452000	1.558458
5.453000	1.567154
5.454000	1.574240
5.455000	1.579394
5.456000	1.584225
5.457000	1.588091
5.458000	1.593566
5.459000	1.590989
5.460000	1.583581
5.461000	1.577139
5.462000	1.564900
5.463000	1.563289
5.464000	1.558458
5.465000	1.551050
5.466000	1.552982
5.467000	1.552016
5.468000	1.555237
5.469000	1.560713
5.470000	1.570053
5.471000	1.575851
5.472000	1.584225
5.473000	1.594532
5.474000	1.594855
5.475000	1.593566
5.476000	1.583581
5.477000	1.570053
5.478000	1.567477
5.479000	1.560713
5.480000	1.559102
5.481000	1.549761
5.482000	1.544286
5.483000	1.542353
5.484000	1.544286
5.485000	1.547507
5.486000	1.556525
5.487000	1.563289
5.488000	1.572952
5.489000	1.581327
5.490000	1.579072
5.491000	1.586158
5.492000	1.589057
5.493000	1.583259
5.494000	1.579716
5.495000	1.570053
5.496000	1.565222
5.497000	1.557492
5.498000	1.551694
5.499000	1.547185
5.500000	1.545574
5.501000	1.546862
5.502000	1.550728
5.503000	1.558780
5.504000	1.564900
5.505000	1.578428
5.506000	1.585192
5.507000	1.590023
5.508000	1.593566
5.509000	1.590345
5.510000	1.580360
5.511000	1.572630
5.512000	1.564256
5.513000	1.562323
5.514000	1.557492
5.515000	1.553626
5.516000	1.551372
5.517000	1.546862
5.518000	1.552338
5.519000	1.553304
5.520000	1.559746
5.521000	1.569087
5.522000	1.580038
5.523000	1.584225
5.524000	1.588735
5.525000	1.594532
5.526000	1.583581
5.527000	1.581971
5.528000	1.577461
5.529000	1.567799
5.530000	1.560068
5.531000	1.555881
5.532000	1.549117
5.533000	1.548473
5.534000	1.553304
5.535000	1.551694
5.536000	1.560713
5.537000	1.569087
5.538000	1.574563
5.539000	1.588413
5.540000	1.589057
5.541000	1.592600
5.542000	1.592600
5.543000	1.588091
5.544000	1.580682
5.545000	1.566510
5.546000	1.561679
5.547000	1.552982
5.548000	1.549761
5.549000	1.551050
5.550000	1.548151
5.551000	1.553626
5.552000	1.558458
5.553000	1.562645
5.554000	1.571020
5.555000	1.574885
5.556000	1.586480
5.557000	1.588413
5.558000	1.596465
5.559000	1.589057
5.560000	1.583903
5.561000	1.574885
5.562000	1.563933
5.563000	1.556203
5.564000	1.552338
5.565000	1.546540
5.566000	1.542997
5.567000	1.546218
5.568000	1.549439
5.569000	1.556847
5.570000	1.562967
5.571000	1.567799
5.572000	1.580038
5.573000	1.587768
5.574000	1.586158
5.575000	1.593244
5.576000	1.581327
5.577000	1.576173
5.578000	1.565222
5.579000	1.559746
5.580000	1.557169
5.581000	1.549117
5.582000	1.547185
5.583000	1.547507
5.584000	1.549761
5.585000	1.557492
5.586000	1.562001
5.587000	1.565544
5.588000	1.572308
5.589000	1.581971
5.590000	1.584548
5.591000	1.588091
5.592000	1.590023
5.593000	1.584548
5.594000	1.571020
5.595000	1.566510
5.596000	1.557492
5.597000	1.551372
5.598000	1.548473
5.599000	1.544286
5.600000	1.549117
5.601000	1.549439
5.602000	1.554593
5.603000	1.561679
5.604000	1.576495
5.605000	1.582293
5.606000	1.586158
5.607000	1.584548
5.608000	1.586480
5.609000	1.579394
5.610000	1.576495
5.611000	1.570053
5.612000	1.568765
5.613000	1.558136
5.614000	1.550083
5.615000	1.550728
5.616000	1.546862
5.617000	1.550406
5.618000	1.552660
5.619000	1.558136
5.620000	1.562967
5.621000	1.570375
5.622000	1.579072
5.623000	1.588735
5.624000	1.593244
5.625000	1.592922
5.626000	1.582293
5.627000	1.574240
5.628000	1.567154
5.629000	1.557492
5.630000	1.551694
5.631000	1.547829
5.632000	1.546540
5.633000	1.547507
5.634000	1.551694
5.635000	1.556847
5.636000	1.561679
5.637000	1.567154
5.638000	1.573918
5.639000	1.587446
5.640000	1.591634
5.641000	1.592278
5.642000	1.589701
5.643000	1.581327
5.644000	1.575529
5.645000	1.567799
5.646000	1.556847
5.647000	1.552016
5.648000	1.543964
5.649000	1.545896
5.650000	1.542353
5.651000	1.551694
5.652000	1.559424
5.653000	1.563933
5.654000	1.572952
5.655000	1.580360
5.656000	1.585514
5.657000	1.594210
5.658000	1.593244
5.659000	1.588091
5.660000	1.584870
5.661000	1.576173
5.662000	1.570697
5.663000	1.562323
5.664000	1.552982
5.665000	1.554593
5.666000	1.551050
5.667000	1.551050
5.668000	1.559424
5.669000	1.561035
5.670000	1.568443
5.671000	1.577139
5.672000	1.586802
5.673000	1.590023
5.674000	1.591634
5.675000	1.590667
5.676000	1.585514
5.677000	1.578106
5.678000	1.571986
5.679000	1.564578
5.680000	1.557814
5.681000	1.547829
5.682000	1.548795
5.683000	1.550083
5.684000	1.548151
5.685000	1.555237
5.686000	1.561679
5.687000	1.570053
5.688000	1.576817
5.689000	1.586158
5.690000	1.593888
5.691000	1.597109
5.692000	1.589701
5.693000	1.589379
5.694000	1.578428
5.695000	1.568443
5.696000	1.561679
5.697000	1.557169
5.698000	1.558780
5.699000	1.554271
5.700000	1.551372
5.701000	1.554915
5.702000	1.555559
5.703000	1.561357
5.704000	1.571020
5.705000	1.582615
5.706000	1.589379
5.707000	1.592600
5.708000	1.594210
5.709000	1.590667
5.710000	1.585192
5.711000	1.574563
5.712000	1.561035
5.713000	1.552982
5.714000	1.545574
5.715000	1.542675
5.716000	1.539454
5.717000	1.543319
5.718000	1.547185
5.719000	1.552982
5.720000	1.562645
5.721000	1.568121
5.722000	1.572952
5.723000	1.585192
5.724000	1.594855
5.725000	1.589379
5.726000	1.581971
5.727000	1.574563
5.728000	1.565866
5.729000	1.558780
5.730000	1.547185
5.731000	1.545896
5.732000	1.543964
5.733000	1.540421
5.734000	1.545574
5.735000	1.549761
5.736000	1.560390
5.737000	1.565222
5.738000	1.572952
5.739000	1.581004
5.740000	1.588413
5.741000	1.589057
5.742000	1.586158
5.743000	1.578750
5.744000	1.570697
5.745000	1.566188
5.746000	1.559102
5.747000	1.553949
5.748000	1.547829
5.749000	1.546218
5.750000	1.547185
5.751000	1.557169
5.752000	1.555559
5.753000	1.562645
5.754000	1.569087
5.755000	1.577461
5.756000	1.586158
5.757000	1.593244
5.758000	1.590345
5.759000	1.585192
5.760000	1.580682
5.761000	1.570375
5.762000	1.562001
5.763000	1.555237
5.764000	1.549439
5.765000	1.545574
5.766000	1.544930
5.767000	1.545896
5.768000	1.550406
5.769000	1.556525
5.770000	1.565222
5.771000	1.571664
5.772000	1.583581
5.773000	1.591312
5.774000	1.590989
5.775000	1.585836
5.776000	1.584548
5.777000	1.578106
5.778000	1.568765
5.779000	1.563289
5.780000	1.552982
5.781000	1.544608
5.782000	1.543319
5.783000	1.540743
5.784000	1.545574
5.785000	1.556847
5.786000	1.560713
5.787000	1.571664
5.788000	1.580038
5.789000	1.581971
5.790000	1.592922
5.791000	1.592600
5.792000	1.593244
5.793000	1.582615
5.794000	1.572308
5.795000	1.562645
5.796000	1.554915
5.797000	1.548795
5.798000	1.548151
5.799000	1.547185
5.800000	1.549117
5.801000	1.555559
5.802000	1.560390
5.803000	1.566832
5.804000	1.569409
5.805000	1.585514
5.806000	1.581649
5.807000	1.586158
5.808000	1.594855
5.809000	1.588413
5.810000	1.586802
5.811000	1.576817
5.812000	1.565866
5.813000	1.559102
5.814000	1.560068
5.815000	1.555881
5.816000	1.554593
5.817000	1.557492
5.818000	1.558136
5.819000	1.563933
5.820000	1.571664
5.821000	1.568121
5.822000	1.587768
5.823000	1.595499
5.824000	1.597431
5.825000	1.600330
5.826000	1.593244
5.827000	1.584548
5.828000	1.574885
5.829000	1.565222
5.830000	1.561357
5.831000	1.553304
5.832000	1.551694
5.833000	1.550728
5.834000	1.552016
5.835000	1.554915
5.836000	1.555559
5.837000	1.566832
5.838000	1.577784
5.839000	1.584870
5.840000	1.590667
5.841000	1.593888
5.842000	1.590989
5.843000	1.584870
5.844000	1.579072
5.845000	1.569087
5.846000	1.561357
5.847000	1.551694
5.848000	1.549117
5.849000	1.549439
5.850000	1.548151
5.851000	1.554915
5.852000	1.557169
5.853000	1.561357
5.854000	1.570375
5.855000	1.579394
5.856000	1.588091
5.857000	1.590989
5.858000	1.592600
5.859000	1.590023
5.860000	1.580360
5.861000	1.572952
5.862000	1.564578
5.863000	1.555559
5.864000	1.552338
5.865000	1.546540
5.866000	1.549761
5.867000	1.555559
5.868000	1.556525
5.869000	1.558136
5.870000	1.568121
5.871000	1.580360
5.872000	1.587446
5.873000	1.589701
5.874000	1.594532
5.875000	1.594210
5.876000	1.586802
5.877000	1.579716
5.878000	1.573274
5.879000	1.560068
5.880000	1.553949
5.881000	1.549761
5.882000	1.547185
5.883000	1.545574
5.884000	1.549439
5.885000	1.554271
5.886000	1.558136
5.887000	1.568121
5.888000	1.576173
5.889000	1.588091
5.890000	1.591634
5.891000	1.594855
5.892000	1.592278
5.893000	1.583903
5.894000	1.578750
5.895000	1.565866
5.896000	1.560713
5.897000	1.552982
5.898000	1.548151
5.899000	1.545896
5.900000	1.544286
5.901000	1.549761
5.902000	1.553626
5.903000	1.565866
5.904000	1.568121
5.905000	1.577461
5.906000	1.584548
5.907000	1.587124
5.908000	1.592922
5.909000	1.588413
5.910000	1.578428
5.911000	1.571020
5.912000	1.566510
5.913000	1.559102
5.914000	1.551050
5.915000	1.549761
5.916000	1.550083
5.917000	1.548473
5.918000	1.546540
5.919000	1.556847
5.920000	1.566510
5.921000	1.573918
5.922000	1.582937
5.923000	1.585836
5.924000	1.589057
5.925000	1.591634
5.926000	1.586158
5.927000	1.577461
5.928000	1.570053
5.929000	1.563933
5.930000	1.557169
5.931000	1.551050
5.932000	1.550406
5.933000	1.551050
5.934000	1.553949
5.935000	1.559746
5.936000	1.561035
5.937000	1.566188
5.938000	1.573596
5.939000	1.581971
5.940000	1.584225
5.941000	1.587124
5.942000	1.586480
5.943000	1.576817
5.944000	1.571986
5.945000	1.566188
5.946000	1.560390
5.947000	1.553304
5.948000	1.552016
5.949000	1.546218
5.950000	1.550406
5.951000	1.550406
5.952000	1.555881
5.953000	1.564900
5.954000	1.569731
5.955000	1.581004
5.956000	1.585192
5.957000	1.588735
5.958000	1.590345
5.959000	1.587768
5.960000	1.577139
5.961000	1.569731
5.962000	1.561679
5.963000	1.551694
5.964000	1.546862
5.965000	1.542675
5.966000	1.539132
5.967000	1.548151
5.968000	1.550083
5.969000	1.554915
5.970000	1.564256
5.971000	1.572630
5.972000	1.583259
5.973000	1.593566
5.974000	1.590667
5.975000	1.592600
5.976000	1.588413
5.977000	1.576173
5.978000	1.567154
5.979000	1.560390
5.980000	1.552338
5.981000	1.551372
5.982000	1.550406
5.983000	1.551050
5.984000	1.552982
5.985000	1.557169
5.986000	1.561035
5.987000	1.569087
5.988000	1.577139
5.989000	1.587124
5.990000	1.590667
5.991000	1.593566
5.992000	1.588091
5.993000	1.577784
5.994000	1.571342
5.995000	1.560713
5.996000	1.554593
5.997000	1.553304
5.998000	1.551694
5.999000	1.549117
6.000000	1.547507
6.001000	1.552660
6.002000	1.559424
6.003000	1.563289
6.004000	1.573596
6.005000	1.581971
6.006000	1.585514
6.007000	1.594210
6.008000	1.597109
6.009000	1.589701
6.010000	1.585836
6.011000	1.576817
6.012000	1.569731
6.013000	1.560713
6.014000	1.553949
6.015000	1.551372
6.016000	1.548473
6.017000	1.550406
6.018000	1.556525
6.019000	1.562967
6.020000	1.568121
6.021000	1.579716
6.022000	1.588735
6.023000	1.594855
6.024000	1.593566
6.025000	1.591956
6.026000	1.582293
6.027000	1.574885
6.028000	1.569731
6.029000	1.561035
6.030000	1.552338
6.031000	1.552338
6.032000	1.549439
6.033000	1.547185
6.034000	1.549761
6.035000	1.552982
6.036000	1.559424
6.037000	1.567154
6.038000	1.571986
6.039000	1.580360
6.040000	1.587124
6.041000	1.587768
6.042000	1.586480
6.043000	1.577461
6.044000	1.566188
6.045000	1.559102
6.046000	1.557169
6.047000	1.548151
6.048000	1.544930
6.049000	1.550083
6.050000	1.545252
6.051000	1.553949
6.052000	1.554271
6.053000	1.562001
6.054000	1.565866
6.055000	1.575851
6.056000	1.584548
6.057000	1.585836
6.058000	1.593244
6.059000	1.586480
6.060000	1.577784
6.061000	1.568121
6.062000	1.558458
6.063000	1.554593
6.064000	1.551372
6.065000	1.554271
6.066000	1.551694
6.067000	1.552016
6.068000	1.555237
6.069000	1.568443
6.070000	1.568121
6.071000	1.574885
6.072000	1.579394
6.073000	1.590667
6.074000	1.582293
6.075000	1.583581
6.076000	1.575851
6.077000	1.569731
6.078000	1.565544
6.079000	1.558136
6.080000	1.548473
6.081000	1.540098
6.082000	1.537844
6.083000	1.540098
6.084000	1.544930
6.085000	1.554271
6.086000	1.559102
6.087000	1.561679
6.088000	1.578106
6.089000	1.578428
6.090000	1.584548
6.091000	1.593888
6.092000	1.583903
6.093000	1.586158
6.094000	1.576495
6.095000	1.568121
6.096000	1.560068
6.097000	1.549117
6.098000	1.548151
6.099000	1.547185
6.100000	1.549117
6.101000	1.555559
6.102000	1.559102
6.103000	1.563611
6.104000	1.571342
6.105000	1.581649
6.106000	1.586158
6.107000	1.590345
6.108000	1.591312
6.109000	1.592278
6.110000	1.580360
6.111000	1.567799
6.112000	1.563611
6.113000	1.555559
6.114000	1.554271
6.115000	1.551694
6.116000	1.542675
6.117000	1.547185
6.118000	1.552016
6.119000	1.562967
6.120000	1.566510
6.121000	1.573596
6.122000	1.584225
6.123000	1.587768
6.124000	1.591956
6.125000	1.591956
6.126000	1.583903
6.127000	1.577784
6.128000	1.568765
6.129000	1.561679
6.130000	1.553626
6.131000	1.549117
6.132000	1.550728
6.133000	1.550728
6.134000	1.555881
6.135000	1.560068
6.136000	1.567154
6.137000	1.574240
6.138000	1.580682
6.139000	1.588735
6.140000	1.597109
6.141000	1.593244
6.142000	1.589701
6.143000	1.583581
6.144000	1.574240
6.145000	1.565544
6.146000	1.556847
6.147000	1.553626
6.148000	1.551050
6.149000	1.546540
6.150000	1.547507
6.151000	1.552338
6.152000	1.555881
6.153000	1.562967
6.154000	1.575851
6.155000	1.578428
6.156000	1.585514
6.157000	1.587124
6.158000	1.589057
6.159000	1.585514
6.160000	1.581971
6.161000	1.569409
6.162000	1.563289
6.163000	1.555881
6.164000	1.550406
6.165000	1.548795
6.166000	1.538166
6.167000	1.552338
6.168000	1.558136
6.169000	1.561035
6.170000	1.569731
6.171000	1.575207
6.172000	1.583259
6.173000	1.586158
6.174000	1.590345
6.175000	1.591312
6.176000	1.585514
6.177000	1.575529
6.178000	1.570375
6.179000	1.562001
6.180000	1.557169
6.181000	1.551050
6.182000	1.549761
6.183000	1.555559
6.184000	1.558136
6.185000	1.561035
6.186000	1.563933
6.187000	1.569731
6.188000	1.579072
6.189000	1.586802
6.190000	1.592600
6.191000	1.593888
6.192000	1.584870
6.193000	1.581327
6.194000	1.573274
6.195000	1.569087
6.196000	1.559102
6.197000	1.552338
6.198000	1.549439
6.199000	1.548151
6.200000	1.549439
6.201000	1.556203
6.202000	1.561357
6.203000	1.571664
6.204000	1.574240
6.205000	1.586158
6.206000	1.592600
6.207000	1.597753
6.208000	1.597753
6.209000	1.590023
6.210000	1.584225
6.211000	1.580038
6.212000	1.570053
6.213000	1.561035
6.214000	1.561035
6.215000	1.556203
6.216000	1.552338
6.217000	1.557169
6.218000	1.561035
6.219000	1.566188
6.220000	1.571986
6.221000	1.576817
6.222000	1.592600
6.223000	1.588735
6.224000	1.599364
6.225000	1.595499
6.226000	1.586158
6.227000	1.578106
6.228000	1.568765
6.229000	1.562323
6.230000	1.552660
6.231000	1.546540
6.232000	1.542031
6.233000	1.547829
6.234000	1.551372
6.235000	1.556847
6.236000	1.559424
6.237000	1.571664
6.238000	1.580360
6.239000	1.587124
6.240000	1.590023
6.241000	1.593566
6.242000	1.587446
6.243000	1.581971
6.244000	1.572630
6.245000	1.564578
6.246000	1.558458
6.247000	1.555559
6.248000	1.552982
6.249000	1.550083
6.250000	1.548473
6.251000	1.550728
6.252000	1.561679
6.253000	1.571342
6.254000	1.572308
6.255000	1.585514
6.256000	1.594532
6.257000	1.591634
6.258000	1.593566
6.259000	1.584225
6.260000	1.576495
6.261000	1.570375
6.262000	1.564256
6.263000	1.558458
6.264000	1.554271
6.265000	1.553304
6.266000	1.549117
6.267000	1.552016
6.268000	1.553626
6.269000	1.561035
6.270000	1.566510
6.271000	1.573274
6.272000	1.581971
6.273000	1.591956
6.274000	1.592600
6.275000	1.591634
6.276000	1.582615
6.277000	1.575207
6.278000	1.569409
6.279000	1.559102
6.280000	1.555881
6.281000	1.552660
6.282000	1.553626
6.283000	1.556525
6.284000	1.557169
6.285000	1.564256
6.286000	1.564900
6.287000	1.577461
