LabVIEW Measurement	
Writer_Version	2
Reader_Version	2
Separator	Tab
Decimal_Separator	.
Multi_Headings	Yes
X_Columns	One
Time_Pref	Relative
Operator	bjl40
Description	Time Domain Data
Date	2024/02/29
Time	12:00:57.6421046257019042969
***End_of_Header***	
	
Channels	1	
Samples	10000	
Date	1903/12/31	
Time	19:00:00	
X_Dimension	Time	
X0	0.0000000000000000E+0	
Delta_X	0.001000	
***End_of_Header***		
X_Value	Untitled	Comment
0.000000	1.583259	Tare Values:0.000000, 0.000000, 0.000000, 0.000000\0D\0A
0.001000	1.604195
0.002000	1.617723
0.003000	1.618690
0.004000	1.611603
0.005000	1.592278
0.006000	1.583259
0.007000	1.591312
0.008000	1.587124
0.009000	1.573596
0.010000	1.541709
0.011000	1.519484
0.012000	1.525282
0.013000	1.532368
0.014000	1.537844
0.015000	1.549117
0.016000	1.566188
0.017000	1.577461
0.018000	1.592278
0.019000	1.609349
0.020000	1.622555
0.021000	1.629963
0.022000	1.633828
0.023000	1.643169
0.024000	1.645101
0.025000	1.642202
0.026000	1.626098
0.027000	1.607738
0.028000	1.582615
0.029000	1.593566
0.030000	1.622233
0.031000	1.646390
0.032000	1.670869
0.033000	1.676667
0.034000	1.653476
0.035000	1.603873
0.036000	1.549761
0.037000	1.520129
0.038000	1.495972
0.039000	1.467949
0.040000	1.468271
0.041000	1.469882
0.042000	1.500481
0.043000	1.545574
0.044000	1.586158
0.045000	1.619656
0.046000	1.650899
0.047000	1.672479
0.048000	1.673124
0.049000	1.638015
0.050000	1.593566
0.051000	1.550083
0.052000	1.509177
0.053000	1.471814
0.054000	1.448302
0.055000	1.473425
0.056000	1.493073
0.057000	1.519807
0.058000	1.538488
0.059000	1.564900
0.060000	1.580360
0.061000	1.594210
0.062000	1.590023
0.063000	1.589057
0.064000	1.564900
0.065000	1.545896
0.066000	1.529469
0.067000	1.509822
0.068000	1.507567
0.069000	1.518196
0.070000	1.569087
0.071000	1.610315
0.072000	1.632218
0.073000	1.641880
0.074000	1.631895
0.075000	1.597109
0.076000	1.579394
0.077000	1.581004
0.078000	1.569409
0.079000	1.559424
0.080000	1.514975
0.081000	1.492428
0.082000	1.496938
0.083000	1.511754
0.084000	1.518196
0.085000	1.525604
0.086000	1.535267
0.087000	1.539132
0.088000	1.564256
0.089000	1.590667
0.090000	1.605484
0.091000	1.632218
0.092000	1.656375
0.093000	1.681498
0.094000	1.685363
0.095000	1.665071
0.096000	1.624487
0.097000	1.603873
0.098000	1.596143
0.099000	1.589057
0.100000	1.577139
0.101000	1.558780
0.102000	1.538166
0.103000	1.533979
0.104000	1.516586
0.105000	1.498226
0.106000	1.475680
0.107000	1.468916
0.108000	1.463762
0.109000	1.476002
0.110000	1.498226
0.111000	1.543319
0.112000	1.564256
0.113000	1.577784
0.114000	1.585192
0.115000	1.620622
0.116000	1.641236
0.117000	1.667326
0.118000	1.686329
0.119000	1.674734
0.120000	1.653154
0.121000	1.629641
0.122000	1.599042
0.123000	1.561035
0.124000	1.538488
0.125000	1.503380
0.126000	1.462796
0.127000	1.464728
0.128000	1.519484
0.129000	1.566188
0.130000	1.621588
0.131000	1.668292
0.132000	1.676344
0.133000	1.675700
0.134000	1.660240
0.135000	1.643491
0.136000	1.606772
0.137000	1.571342
0.138000	1.527537
0.139000	1.493073
0.140000	1.461507
0.141000	1.459253
0.142000	1.459575
0.143000	1.458609
0.144000	1.454099
0.145000	1.463118
0.146000	1.483088
0.147000	1.502736
0.148000	1.521095
0.149000	1.533012
0.150000	1.553949
0.151000	1.579072
0.152000	1.594210
0.153000	1.611926
0.154000	1.614502
0.155000	1.618045
0.156000	1.617723
0.157000	1.610959
0.158000	1.613858
0.159000	1.602263
0.160000	1.582615
0.161000	1.589057
0.162000	1.599042
0.163000	1.596787
0.164000	1.608383
0.165000	1.661206
0.166000	1.699857
0.167000	1.704689
0.168000	1.678921
0.169000	1.638659
0.170000	1.588091
0.171000	1.540098
0.172000	1.507567
0.173000	1.491784
0.174000	1.464728
0.175000	1.493717
0.176000	1.538488
0.177000	1.559746
0.178000	1.572630
0.179000	1.586802
0.180000	1.606128
0.181000	1.635116
0.182000	1.664105
0.183000	1.663139
0.184000	1.644135
0.185000	1.594210
0.186000	1.547507
0.187000	1.522705
0.188000	1.516263
0.189000	1.504668
0.190000	1.500159
0.191000	1.485342
0.192000	1.493395
0.193000	1.516263
0.194000	1.527537
0.195000	1.548151
0.196000	1.561035
0.197000	1.548473
0.198000	1.549117
0.199000	1.552016
0.200000	1.554593
0.201000	1.571664
0.202000	1.574563
0.203000	1.557814
0.204000	1.557814
0.205000	1.552982
0.206000	1.542031
0.207000	1.532368
0.208000	1.520451
0.209000	1.509822
0.210000	1.508211
0.211000	1.490174
0.212000	1.490818
0.213000	1.512076
0.214000	1.542675
0.215000	1.578106
0.216000	1.617401
0.217000	1.662494
0.218000	1.686007
0.219000	1.695992
0.220000	1.693738
0.221000	1.676989
0.222000	1.647034
0.223000	1.609349
0.224000	1.577139
0.225000	1.546862
0.226000	1.515297
0.227000	1.483732
0.228000	1.471170
0.229000	1.491462
0.230000	1.527859
0.231000	1.575851
0.232000	1.589379
0.233000	1.593888
0.234000	1.602907
0.235000	1.608060
0.236000	1.606128
0.237000	1.607416
0.238000	1.609027
0.239000	1.591634
0.240000	1.575851
0.241000	1.553626
0.242000	1.531080
0.243000	1.508211
0.244000	1.483732
0.245000	1.475680
0.246000	1.502091
0.247000	1.538810
0.248000	1.574240
0.249000	1.598075
0.250000	1.622233
0.251000	1.639626
0.252000	1.648966
0.253000	1.679888
0.254000	1.693093
0.255000	1.702112
0.256000	1.691483
0.257000	1.636727
0.258000	1.580682
0.259000	1.559424
0.260000	1.563933
0.261000	1.554271
0.262000	1.570375
0.263000	1.577784
0.264000	1.602585
0.265000	1.598720
0.266000	1.588091
0.267000	1.550406
0.268000	1.499515
0.269000	1.472459
0.270000	1.458286
0.271000	1.435418
0.272000	1.465373
0.273000	1.502413
0.274000	1.519484
0.275000	1.537200
0.276000	1.542031
0.277000	1.553304
0.278000	1.564900
0.279000	1.582615
0.280000	1.583581
0.281000	1.568443
0.282000	1.522705
0.283000	1.506923
0.284000	1.529469
0.285000	1.550083
0.286000	1.558780
0.287000	1.545574
0.288000	1.539454
0.289000	1.534301
0.290000	1.521095
0.291000	1.521739
0.292000	1.522061
0.293000	1.526893
0.294000	1.530436
0.295000	1.547829
0.296000	1.565866
0.297000	1.583581
0.298000	1.620622
0.299000	1.661528
0.300000	1.712097
0.301000	1.761377
0.302000	1.795197
0.303000	1.795842
0.304000	1.763632
0.305000	1.729490
0.306000	1.686651
0.307000	1.598398
0.308000	1.519484
0.309000	1.483410
0.310000	1.470204
0.311000	1.462152
0.312000	1.470204
0.313000	1.497582
0.314000	1.535911
0.315000	1.576495
0.316000	1.598720
0.317000	1.590667
0.318000	1.613858
0.319000	1.632218
0.320000	1.619334
0.321000	1.620944
0.322000	1.624165
0.323000	1.596787
0.324000	1.551694
0.325000	1.505312
0.326000	1.467949
0.327000	1.437672
0.328000	1.422856
0.329000	1.394190
0.330000	1.404819
0.331000	1.436384
0.332000	1.466661
0.333000	1.493395
0.334000	1.516263
0.335000	1.527859
0.336000	1.531080
0.337000	1.538488
0.338000	1.553626
0.339000	1.577139
0.340000	1.618045
0.341000	1.647356
0.342000	1.659918
0.343000	1.663783
0.344000	1.669580
0.345000	1.674412
0.346000	1.660562
0.347000	1.631895
0.348000	1.583903
0.349000	1.558458
0.350000	1.522705
0.351000	1.496938
0.352000	1.487919
0.353000	1.491462
0.354000	1.509499
0.355000	1.514653
0.356000	1.533657
0.357000	1.556203
0.358000	1.581971
0.359000	1.598720
0.360000	1.609671
0.361000	1.624809
0.362000	1.614824
0.363000	1.600652
0.364000	1.590667
0.365000	1.583903
0.366000	1.556847
0.367000	1.542675
0.368000	1.533657
0.369000	1.549439
0.370000	1.575529
0.371000	1.598075
0.372000	1.630929
0.373000	1.673768
0.374000	1.716928
0.375000	1.750748
0.376000	1.740763
0.377000	1.726269
0.378000	1.691161
0.379000	1.655730
0.380000	1.620944
0.381000	1.588091
0.382000	1.540098
0.383000	1.496938
0.384000	1.461507
0.385000	1.459253
0.386000	1.499192
0.387000	1.532690
0.388000	1.551050
0.389000	1.558458
0.390000	1.559746
0.391000	1.536555
0.392000	1.507245
0.393000	1.500481
0.394000	1.479867
0.395000	1.483732
0.396000	1.497904
0.397000	1.523994
0.398000	1.545574
0.399000	1.552660
0.400000	1.550406
0.401000	1.546862
0.402000	1.552660
0.403000	1.555881
0.404000	1.559102
0.405000	1.581971
0.406000	1.597109
0.407000	1.607094
0.408000	1.599364
0.409000	1.595177
0.410000	1.573274
0.411000	1.546862
0.412000	1.530114
0.413000	1.517874
0.414000	1.541065
0.415000	1.559424
0.416000	1.557169
0.417000	1.572308
0.418000	1.594210
0.419000	1.600330
0.420000	1.600652
0.421000	1.597109
0.422000	1.579394
0.423000	1.549117
0.424000	1.560068
0.425000	1.567477
0.426000	1.565544
0.427000	1.565544
0.428000	1.576817
0.429000	1.573596
0.430000	1.564578
0.431000	1.558780
0.432000	1.557492
0.433000	1.547829
0.434000	1.555881
0.435000	1.569087
0.436000	1.593566
0.437000	1.621588
0.438000	1.633828
0.439000	1.639626
0.440000	1.654120
0.441000	1.662494
0.442000	1.651865
0.443000	1.608705
0.444000	1.586802
0.445000	1.544608
0.446000	1.505312
0.447000	1.500159
0.448000	1.507245
0.449000	1.504346
0.450000	1.497904
0.451000	1.498226
0.452000	1.513687
0.453000	1.547507
0.454000	1.576495
0.455000	1.584225
0.456000	1.580038
0.457000	1.585192
0.458000	1.610637
0.459000	1.619012
0.460000	1.623843
0.461000	1.613214
0.462000	1.595499
0.463000	1.584548
0.464000	1.570697
0.465000	1.535267
0.466000	1.527859
0.467000	1.507245
0.468000	1.476002
0.469000	1.463440
0.470000	1.503380
0.471000	1.558458
0.472000	1.601296
0.473000	1.627064
0.474000	1.637049
0.475000	1.646390
0.476000	1.654120
0.477000	1.655086
0.478000	1.631251
0.479000	1.575851
0.480000	1.542997
0.481000	1.489208
0.482000	1.438317
0.483000	1.427365
0.484000	1.440571
0.485000	1.465695
0.486000	1.480833
0.487000	1.501447
0.488000	1.516586
0.489000	1.523027
0.490000	1.526571
0.491000	1.531724
0.492000	1.544930
0.493000	1.567154
0.494000	1.592922
0.495000	1.608060
0.496000	1.622233
0.497000	1.622877
0.498000	1.621910
0.499000	1.619978
0.500000	1.587446
0.501000	1.564900
0.502000	1.551694
0.503000	1.549117
0.504000	1.569731
0.505000	1.602263
0.506000	1.643169
0.507000	1.667004
0.508000	1.680532
0.509000	1.689550
0.510000	1.691805
0.511000	1.665071
0.512000	1.629963
0.513000	1.582293
0.514000	1.518518
0.515000	1.492751
0.516000	1.496938
0.517000	1.491462
0.518000	1.495649
0.519000	1.502736
0.520000	1.519807
0.521000	1.526571
0.522000	1.524316
0.523000	1.521739
0.524000	1.523027
0.525000	1.537200
0.526000	1.543964
0.527000	1.567799
0.528000	1.588413
0.529000	1.590345
0.530000	1.602907
0.531000	1.606772
0.532000	1.609671
0.533000	1.616113
0.534000	1.611926
0.535000	1.593888
0.536000	1.584870
0.537000	1.582937
0.538000	1.582615
0.539000	1.560713
0.540000	1.548151
0.541000	1.526248
0.542000	1.489208
0.543000	1.488241
0.544000	1.504990
0.545000	1.512076
0.546000	1.527215
0.547000	1.560390
0.548000	1.583903
0.549000	1.612570
0.550000	1.612892
0.551000	1.591956
0.552000	1.579716
0.553000	1.584870
0.554000	1.591634
0.555000	1.589379
0.556000	1.570697
0.557000	1.546218
0.558000	1.530758
0.559000	1.523027
0.560000	1.512720
0.561000	1.504346
0.562000	1.525282
0.563000	1.534301
0.564000	1.561035
0.565000	1.601619
0.566000	1.633506
0.567000	1.627386
0.568000	1.611281
0.569000	1.586802
0.570000	1.575207
0.571000	1.584225
0.572000	1.589057
0.573000	1.590667
0.574000	1.636727
0.575000	1.670869
0.576000	1.682464
0.577000	1.693738
0.578000	1.715640
0.579000	1.724659
0.580000	1.723048
0.581000	1.669903
0.582000	1.607416
0.583000	1.547829
0.584000	1.500481
0.585000	1.447335
0.586000	1.423178
0.587000	1.420924
0.588000	1.444114
0.589000	1.472459
0.590000	1.504668
0.591000	1.524638
0.592000	1.523994
0.593000	1.528503
0.594000	1.524638
0.595000	1.491140
0.596000	1.484054
0.597000	1.483410
0.598000	1.497260
0.599000	1.522383
0.600000	1.554271
0.601000	1.579072
0.602000	1.575851
0.603000	1.547507
0.604000	1.549761
0.605000	1.542031
0.606000	1.534623
0.607000	1.548795
0.608000	1.572308
0.609000	1.573596
0.610000	1.579394
0.611000	1.586480
0.612000	1.588735
0.613000	1.590667
0.614000	1.596143
0.615000	1.594210
0.616000	1.593566
0.617000	1.572952
0.618000	1.548473
0.619000	1.557492
0.620000	1.564578
0.621000	1.595821
0.622000	1.619334
0.623000	1.635761
0.624000	1.670869
0.625000	1.708876
0.626000	1.714352
0.627000	1.699857
0.628000	1.670225
0.629000	1.642525
0.630000	1.621588
0.631000	1.574885
0.632000	1.513043
0.633000	1.475035
0.634000	1.482121
0.635000	1.480189
0.636000	1.496938
0.637000	1.515619
0.638000	1.530758
0.639000	1.552338
0.640000	1.565866
0.641000	1.579072
0.642000	1.609349
0.643000	1.627386
0.644000	1.649611
0.645000	1.657341
0.646000	1.658307
0.647000	1.655086
0.648000	1.646390
0.649000	1.578750
0.650000	1.518196
0.651000	1.492751
0.652000	1.468593
0.653000	1.469560
0.654000	1.486309
0.655000	1.508855
0.656000	1.515941
0.657000	1.527215
0.658000	1.539454
0.659000	1.538810
0.660000	1.531080
0.661000	1.528825
0.662000	1.532046
0.663000	1.539454
0.664000	1.543642
0.665000	1.559424
0.666000	1.586158
0.667000	1.614824
0.668000	1.650577
0.669000	1.684719
0.670000	1.697281
0.671000	1.661528
0.672000	1.630929
0.673000	1.593566
0.674000	1.557492
0.675000	1.520773
0.676000	1.505634
0.677000	1.500803
0.678000	1.504024
0.679000	1.520451
0.680000	1.543642
0.681000	1.563289
0.682000	1.566510
0.683000	1.556203
0.684000	1.537522
0.685000	1.532046
0.686000	1.547507
0.687000	1.559746
0.688000	1.550728
0.689000	1.551050
0.690000	1.547829
0.691000	1.553949
0.692000	1.558458
0.693000	1.576817
0.694000	1.586802
0.695000	1.595499
0.696000	1.599364
0.697000	1.613858
0.698000	1.629641
0.699000	1.647356
0.700000	1.661850
0.701000	1.664105
0.702000	1.611926
0.703000	1.556203
0.704000	1.543642
0.705000	1.535911
0.706000	1.505956
0.707000	1.499192
0.708000	1.523672
0.709000	1.539454
0.710000	1.558136
0.711000	1.560068
0.712000	1.563611
0.713000	1.564578
0.714000	1.571986
0.715000	1.601941
0.716000	1.632862
0.717000	1.669580
0.718000	1.706299
0.719000	1.708876
0.720000	1.702756
0.721000	1.671191
0.722000	1.609349
0.723000	1.568121
0.724000	1.533657
0.725000	1.492106
0.726000	1.474069
0.727000	1.496294
0.728000	1.524960
0.729000	1.562645
0.730000	1.598398
0.731000	1.623199
0.732000	1.629641
0.733000	1.595499
0.734000	1.542031
0.735000	1.493395
0.736000	1.469238
0.737000	1.466339
0.738000	1.452167
0.739000	1.446369
0.740000	1.456032
0.741000	1.470204
0.742000	1.486953
0.743000	1.490174
0.744000	1.504990
0.745000	1.548473
0.746000	1.581327
0.747000	1.599042
0.748000	1.623521
0.749000	1.649933
0.750000	1.675700
0.751000	1.677955
0.752000	1.666682
0.753000	1.644457
0.754000	1.606128
0.755000	1.585836
0.756000	1.556847
0.757000	1.525926
0.758000	1.511754
0.759000	1.487919
0.760000	1.469238
0.761000	1.478901
0.762000	1.505634
0.763000	1.534301
0.764000	1.552338
0.765000	1.565866
0.766000	1.583903
0.767000	1.592922
0.768000	1.595821
0.769000	1.608383
0.770000	1.618690
0.771000	1.619334
0.772000	1.602907
0.773000	1.561679
0.774000	1.543642
0.775000	1.548795
0.776000	1.552982
0.777000	1.561357
0.778000	1.567477
0.779000	1.572952
0.780000	1.602585
0.781000	1.651865
0.782000	1.690195
0.783000	1.742052
0.784000	1.788755
0.785000	1.803894
0.786000	1.800351
0.787000	1.756224
0.788000	1.694060
0.789000	1.623199
0.790000	1.550728
0.791000	1.470526
0.792000	1.396122
0.793000	1.398377
0.794000	1.428010
0.795000	1.505634
0.796000	1.574240
0.797000	1.618690
0.798000	1.637371
0.799000	1.647678
0.800000	1.641558
0.801000	1.601941
0.802000	1.561357
0.803000	1.518196
0.804000	1.452489
0.805000	1.376797
0.806000	1.351673
0.807000	1.383883
0.808000	1.424467
0.809000	1.465050
0.810000	1.509822
0.811000	1.525282
0.812000	1.544286
0.813000	1.556203
0.814000	1.585192
0.815000	1.615791
0.816000	1.641558
0.817000	1.658629
0.818000	1.656375
0.819000	1.655086
0.820000	1.646390
0.821000	1.631573
0.822000	1.572308
0.823000	1.521095
0.824000	1.487597
0.825000	1.458931
0.826000	1.452811
0.827000	1.469882
0.828000	1.494361
0.829000	1.508533
0.830000	1.528181
0.831000	1.548795
0.832000	1.567154
0.833000	1.574240
0.834000	1.577784
0.835000	1.574240
0.836000	1.580360
0.837000	1.581327
0.838000	1.569409
0.839000	1.583903
0.840000	1.596465
0.841000	1.609671
0.842000	1.616757
0.843000	1.612248
0.844000	1.590667
0.845000	1.573274
0.846000	1.573274
0.847000	1.578750
0.848000	1.601941
0.849000	1.617723
0.850000	1.630929
0.851000	1.630607
0.852000	1.628997
0.853000	1.633506
0.854000	1.643813
0.855000	1.661206
0.856000	1.687296
0.857000	1.695670
0.858000	1.688584
0.859000	1.684397
0.860000	1.665715
0.861000	1.629641
0.862000	1.612248
0.863000	1.591312
0.864000	1.555881
0.865000	1.529147
0.866000	1.514975
0.867000	1.517552
0.868000	1.542031
0.869000	1.576817
0.870000	1.605484
0.871000	1.577461
0.872000	1.554271
0.873000	1.537200
0.874000	1.511754
0.875000	1.475357
0.876000	1.442504
0.877000	1.435096
0.878000	1.448946
0.879000	1.476968
0.880000	1.504024
0.881000	1.513043
0.882000	1.523350
0.883000	1.533334
0.884000	1.525926
0.885000	1.515941
0.886000	1.521417
0.887000	1.537522
0.888000	1.551372
0.889000	1.586480
0.890000	1.614502
0.891000	1.629641
0.892000	1.644779
0.893000	1.649289
0.894000	1.632218
0.895000	1.590023
0.896000	1.554271
0.897000	1.526571
0.898000	1.504346
0.899000	1.491140
0.900000	1.488885
0.901000	1.516908
0.902000	1.542997
0.903000	1.560713
0.904000	1.577784
0.905000	1.603873
0.906000	1.614824
0.907000	1.617401
0.908000	1.618045
0.909000	1.598720
0.910000	1.574885
0.911000	1.557169
0.912000	1.547829
0.913000	1.545896
0.914000	1.547185
0.915000	1.562323
0.916000	1.553949
0.917000	1.559746
0.918000	1.593566
0.919000	1.611603
0.920000	1.620622
0.921000	1.625131
0.922000	1.627064
0.923000	1.602585
0.924000	1.566510
0.925000	1.533012
0.926000	1.511754
0.927000	1.521095
0.928000	1.530758
0.929000	1.539776
0.930000	1.588735
0.931000	1.637693
0.932000	1.682464
0.933000	1.699213
0.934000	1.670547
0.935000	1.618367
0.936000	1.575851
0.937000	1.554593
0.938000	1.517230
0.939000	1.453777
0.940000	1.400632
0.941000	1.396122
0.942000	1.441860
0.943000	1.493717
0.944000	1.531080
0.945000	1.563933
0.946000	1.590667
0.947000	1.599686
0.948000	1.591956
0.949000	1.581971
0.950000	1.582615
0.951000	1.597431
0.952000	1.586802
0.953000	1.578106
0.954000	1.553304
0.955000	1.520773
0.956000	1.485020
0.957000	1.471814
0.958000	1.476968
0.959000	1.506601
0.960000	1.536555
0.961000	1.562967
0.962000	1.581971
0.963000	1.585192
0.964000	1.585514
0.965000	1.582615
0.966000	1.590667
0.967000	1.595177
0.968000	1.602263
0.969000	1.585514
0.970000	1.576173
0.971000	1.574885
0.972000	1.588735
0.973000	1.598075
0.974000	1.611281
0.975000	1.627708
0.976000	1.641236
0.977000	1.656053
0.978000	1.656053
0.979000	1.639304
0.980000	1.628352
0.981000	1.618690
0.982000	1.606450
0.983000	1.582937
0.984000	1.589057
0.985000	1.584548
0.986000	1.555559
0.987000	1.523672
0.988000	1.498226
0.989000	1.479223
0.990000	1.452167
0.991000	1.454099
0.992000	1.468593
0.993000	1.490818
0.994000	1.516586
0.995000	1.531724
0.996000	1.564256
0.997000	1.607416
0.998000	1.659596
0.999000	1.685685
1.000000	1.704045
1.001000	1.706943
1.002000	1.678277
1.003000	1.614502
1.004000	1.555559
1.005000	1.535911
1.006000	1.501769
1.007000	1.482444
1.008000	1.463440
1.009000	1.467627
1.010000	1.496616
1.011000	1.520129
1.012000	1.527537
1.013000	1.532690
1.014000	1.551372
1.015000	1.557814
1.016000	1.556525
1.017000	1.558458
1.018000	1.569409
1.019000	1.575529
1.020000	1.551050
1.021000	1.515941
1.022000	1.507889
1.023000	1.512398
1.024000	1.527537
1.025000	1.519162
1.026000	1.538488
1.027000	1.578106
1.028000	1.612248
1.029000	1.625776
1.030000	1.645101
1.031000	1.651221
1.032000	1.630285
1.033000	1.595177
1.034000	1.585514
1.035000	1.582937
1.036000	1.571664
1.037000	1.581004
1.038000	1.588735
1.039000	1.607094
1.040000	1.605806
1.041000	1.591956
1.042000	1.554593
1.043000	1.541709
1.044000	1.548151
1.045000	1.552660
1.046000	1.541709
1.047000	1.522061
1.048000	1.518518
1.049000	1.523027
1.050000	1.514653
1.051000	1.525604
1.052000	1.540098
1.053000	1.558458
1.054000	1.591312
1.055000	1.617723
1.056000	1.650255
1.057000	1.679565
1.058000	1.667326
1.059000	1.652832
1.060000	1.635761
1.061000	1.584870
1.062000	1.535589
1.063000	1.509177
1.064000	1.509822
1.065000	1.514331
1.066000	1.533657
1.067000	1.530114
1.068000	1.535911
1.069000	1.552016
1.070000	1.551694
1.071000	1.536555
1.072000	1.508211
1.073000	1.482766
1.074000	1.483410
1.075000	1.483410
1.076000	1.512076
1.077000	1.531724
1.078000	1.550728
1.079000	1.566510
1.080000	1.591634
1.081000	1.614824
1.082000	1.602907
1.083000	1.577461
1.084000	1.578428
1.085000	1.569731
1.086000	1.573918
1.087000	1.599042
1.088000	1.624487
1.089000	1.631573
1.090000	1.653476
1.091000	1.661528
1.092000	1.634150
1.093000	1.600652
1.094000	1.577139
1.095000	1.563611
1.096000	1.541709
1.097000	1.522383
1.098000	1.503058
1.099000	1.500481
1.100000	1.528825
1.101000	1.549117
1.102000	1.553304
1.103000	1.553626
1.104000	1.552016
1.105000	1.556525
1.106000	1.572952
1.107000	1.576817
1.108000	1.563933
1.109000	1.553304
1.110000	1.519807
1.111000	1.506601
1.112000	1.529469
1.113000	1.562323
1.114000	1.582937
1.115000	1.618045
1.116000	1.642202
1.117000	1.650255
1.118000	1.655086
1.119000	1.649933
1.120000	1.636083
1.121000	1.619012
1.122000	1.582615
1.123000	1.505312
1.124000	1.471814
1.125000	1.495005
1.126000	1.526893
1.127000	1.559424
1.128000	1.574885
1.129000	1.609671
1.130000	1.652509
1.131000	1.636405
1.132000	1.621588
1.133000	1.615147
1.134000	1.617723
1.135000	1.605162
1.136000	1.590667
1.137000	1.564256
1.138000	1.529791
1.139000	1.497260
1.140000	1.469238
1.141000	1.441215
1.142000	1.440249
1.143000	1.454099
1.144000	1.472781
1.145000	1.491140
1.146000	1.498548
1.147000	1.511432
1.148000	1.529791
1.149000	1.551694
1.150000	1.593244
1.151000	1.607738
1.152000	1.605484
1.153000	1.603229
1.154000	1.586158
1.155000	1.565544
1.156000	1.563933
1.157000	1.570697
1.158000	1.560713
1.159000	1.543319
1.160000	1.543642
1.161000	1.558458
1.162000	1.586158
1.163000	1.595177
1.164000	1.616113
1.165000	1.631251
1.166000	1.628352
1.167000	1.621266
1.168000	1.594210
1.169000	1.571020
1.170000	1.567154
1.171000	1.553949
1.172000	1.524638
1.173000	1.498548
1.174000	1.487919
1.175000	1.483732
1.176000	1.494683
1.177000	1.514331
1.178000	1.548473
1.179000	1.589701
1.180000	1.622233
1.181000	1.662172
1.182000	1.689228
1.183000	1.703723
1.184000	1.709520
1.185000	1.704367
1.186000	1.683753
1.187000	1.643169
1.188000	1.587124
1.189000	1.541387
1.190000	1.506601
1.191000	1.492751
1.192000	1.492751
1.193000	1.504024
1.194000	1.520451
1.195000	1.545896
1.196000	1.594532
1.197000	1.623199
1.198000	1.627064
1.199000	1.619012
1.200000	1.574885
1.201000	1.562967
1.202000	1.560068
1.203000	1.541065
1.204000	1.523350
1.205000	1.498226
1.206000	1.500481
1.207000	1.495649
1.208000	1.489208
1.209000	1.481155
1.210000	1.495327
1.211000	1.519484
1.212000	1.532690
1.213000	1.543319
1.214000	1.551372
1.215000	1.586480
1.216000	1.615147
1.217000	1.631573
1.218000	1.617723
1.219000	1.566510
1.220000	1.541709
1.221000	1.540098
1.222000	1.519484
1.223000	1.505312
1.224000	1.506601
1.225000	1.518840
1.226000	1.535267
1.227000	1.557492
1.228000	1.564578
1.229000	1.585836
1.230000	1.607416
1.231000	1.613214
1.232000	1.616757
1.233000	1.600652
1.234000	1.576817
1.235000	1.547185
1.236000	1.546540
1.237000	1.553304
1.238000	1.558136
1.239000	1.567477
1.240000	1.567154
1.241000	1.563933
1.242000	1.571664
1.243000	1.603229
1.244000	1.621910
1.245000	1.654120
1.246000	1.648322
1.247000	1.635116
1.248000	1.609027
1.249000	1.587124
1.250000	1.594210
1.251000	1.603229
1.252000	1.624809
1.253000	1.646390
1.254000	1.636727
1.255000	1.618690
1.256000	1.573918
1.257000	1.536555
1.258000	1.504990
1.259000	1.483088
1.260000	1.483732
1.261000	1.481477
1.262000	1.504346
1.263000	1.554593
1.264000	1.588091
1.265000	1.613536
1.266000	1.621588
1.267000	1.622233
1.268000	1.598720
1.269000	1.532690
1.270000	1.497582
1.271000	1.464728
1.272000	1.448302
1.273000	1.444759
1.274000	1.443148
1.275000	1.467305
1.276000	1.503058
1.277000	1.540098
1.278000	1.575207
1.279000	1.603551
1.280000	1.637049
1.281000	1.649289
1.282000	1.673446
1.283000	1.671835
1.284000	1.668292
1.285000	1.639948
1.286000	1.587768
1.287000	1.533979
1.288000	1.499515
1.289000	1.502736
1.290000	1.514653
1.291000	1.519162
1.292000	1.523350
1.293000	1.546218
1.294000	1.564578
1.295000	1.561679
1.296000	1.567799
1.297000	1.550728
1.298000	1.540743
1.299000	1.545252
1.300000	1.565222
1.301000	1.552660
1.302000	1.533334
1.303000	1.512720
1.304000	1.511110
1.305000	1.537200
1.306000	1.564900
1.307000	1.586480
1.308000	1.599364
1.309000	1.601941
1.310000	1.602263
1.311000	1.577461
1.312000	1.554593
1.313000	1.548473
1.314000	1.565222
1.315000	1.602263
1.316000	1.608060
1.317000	1.596787
1.318000	1.590023
1.319000	1.566510
1.320000	1.569731
1.321000	1.599042
1.322000	1.644457
1.323000	1.665715
1.324000	1.675056
1.325000	1.675700
1.326000	1.674412
1.327000	1.663139
1.328000	1.620300
1.329000	1.543964
1.330000	1.466017
1.331000	1.411905
1.332000	1.374864
1.333000	1.380340
1.334000	1.422534
1.335000	1.462152
1.336000	1.505312
1.337000	1.541065
1.338000	1.573274
1.339000	1.586802
1.340000	1.590023
1.341000	1.588091
1.342000	1.555237
1.343000	1.523994
1.344000	1.509499
1.345000	1.516263
1.346000	1.533012
1.347000	1.540743
1.348000	1.535589
1.349000	1.530436
1.350000	1.535589
1.351000	1.536555
1.352000	1.536878
1.353000	1.557492
1.354000	1.568443
1.355000	1.592600
1.356000	1.595821
1.357000	1.593888
1.358000	1.609027
1.359000	1.616757
1.360000	1.632218
1.361000	1.619012
1.362000	1.594855
1.363000	1.586158
1.364000	1.587124
1.365000	1.583259
1.366000	1.559102
1.367000	1.522705
1.368000	1.495649
1.369000	1.513043
1.370000	1.522061
1.371000	1.523027
1.372000	1.535589
1.373000	1.553626
1.374000	1.572952
1.375000	1.571020
1.376000	1.564900
1.377000	1.589379
1.378000	1.609349
1.379000	1.622555
1.380000	1.633184
1.381000	1.640270
1.382000	1.647034
1.383000	1.627386
1.384000	1.623199
1.385000	1.616757
1.386000	1.599686
1.387000	1.580682
1.388000	1.569731
1.389000	1.560713
1.390000	1.523994
1.391000	1.496294
1.392000	1.478578
1.393000	1.462474
1.394000	1.430908
1.395000	1.422212
1.396000	1.438317
1.397000	1.471814
1.398000	1.516263
1.399000	1.564578
1.400000	1.601296
1.401000	1.631895
1.402000	1.670547
1.403000	1.698247
1.404000	1.722726
1.405000	1.728524
1.406000	1.702756
1.407000	1.649289
1.408000	1.604517
1.409000	1.565222
1.410000	1.522061
1.411000	1.483732
1.412000	1.463118
1.413000	1.453133
1.414000	1.447013
1.415000	1.445725
1.416000	1.454421
1.417000	1.476968
1.418000	1.494683
1.419000	1.505956
1.420000	1.513365
1.421000	1.522705
1.422000	1.540743
1.423000	1.556525
1.424000	1.566832
1.425000	1.576495
1.426000	1.576495
1.427000	1.593566
1.428000	1.612892
1.429000	1.616435
1.430000	1.622877
1.431000	1.647678
1.432000	1.671835
1.433000	1.701146
1.434000	1.702434
1.435000	1.674734
1.436000	1.628674
1.437000	1.582615
1.438000	1.543319
1.439000	1.507889
1.440000	1.489852
1.441000	1.468916
1.442000	1.460863
1.443000	1.471492
1.444000	1.492751
1.445000	1.526893
1.446000	1.560713
1.447000	1.594532
1.448000	1.610959
1.449000	1.625131
1.450000	1.619012
1.451000	1.629641
1.452000	1.631251
1.453000	1.621588
1.454000	1.595177
1.455000	1.540421
1.456000	1.516586
1.457000	1.507567
1.458000	1.510144
1.459000	1.516908
1.460000	1.547185
1.461000	1.581004
1.462000	1.605162
1.463000	1.592278
1.464000	1.593566
1.465000	1.582615
1.466000	1.549117
1.467000	1.495005
1.468000	1.489852
1.469000	1.484698
1.470000	1.492751
1.471000	1.504668
1.472000	1.527537
1.473000	1.557169
1.474000	1.597109
1.475000	1.633828
1.476000	1.658951
1.477000	1.670225
1.478000	1.655086
1.479000	1.624487
1.480000	1.583581
1.481000	1.545252
1.482000	1.529791
1.483000	1.494039
1.484000	1.474391
1.485000	1.505634
1.486000	1.529147
1.487000	1.538488
1.488000	1.509822
1.489000	1.512076
1.490000	1.552660
1.491000	1.607416
1.492000	1.638659
1.493000	1.653154
1.494000	1.663139
1.495000	1.656053
1.496000	1.634794
1.497000	1.622877
1.498000	1.584225
1.499000	1.568443
1.500000	1.550728
1.501000	1.503380
1.502000	1.499837
1.503000	1.509822
1.504000	1.495327
1.505000	1.476002
1.506000	1.477290
1.507000	1.497582
1.508000	1.513687
1.509000	1.528825
1.510000	1.544608
1.511000	1.578106
1.512000	1.606450
1.513000	1.619012
1.514000	1.635761
1.515000	1.643491
1.516000	1.632862
1.517000	1.623843
1.518000	1.612892
1.519000	1.590023
1.520000	1.547829
1.521000	1.515619
1.522000	1.507567
1.523000	1.488563
1.524000	1.496938
1.525000	1.521417
1.526000	1.530758
1.527000	1.547185
1.528000	1.547507
1.529000	1.570375
1.530000	1.590023
1.531000	1.603873
1.532000	1.606450
1.533000	1.599364
1.534000	1.578106
1.535000	1.546218
1.536000	1.536233
1.537000	1.513365
1.538000	1.500803
1.539000	1.506601
1.540000	1.525926
1.541000	1.557814
1.542000	1.585192
1.543000	1.627064
1.544000	1.663461
1.545000	1.677955
1.546000	1.673124
1.547000	1.660562
1.548000	1.634794
1.549000	1.578106
1.550000	1.495005
1.551000	1.456998
1.552000	1.453777
1.553000	1.487275
1.554000	1.538166
1.555000	1.596787
1.556000	1.637693
1.557000	1.651221
1.558000	1.654442
1.559000	1.635116
1.560000	1.621588
1.561000	1.596143
1.562000	1.571020
1.563000	1.540743
1.564000	1.498548
1.565000	1.518196
1.566000	1.553304
1.567000	1.573596
1.568000	1.558458
1.569000	1.539776
1.570000	1.542353
1.571000	1.541709
1.572000	1.559102
1.573000	1.582937
1.574000	1.606128
1.575000	1.609993
1.576000	1.587124
1.577000	1.556525
1.578000	1.553626
1.579000	1.550083
1.580000	1.535911
1.581000	1.533657
1.582000	1.545574
1.583000	1.537844
1.584000	1.506279
1.585000	1.488563
1.586000	1.488563
1.587000	1.484698
1.588000	1.479545
1.589000	1.503058
1.590000	1.531080
1.591000	1.576495
1.592000	1.609027
1.593000	1.637049
1.594000	1.672801
1.595000	1.704045
1.596000	1.720149
1.597000	1.705333
1.598000	1.674090
1.599000	1.627064
1.600000	1.578750
1.601000	1.522705
1.602000	1.475680
1.603000	1.454421
1.604000	1.441215
1.605000	1.415770
1.606000	1.412549
1.607000	1.437028
1.608000	1.478578
1.609000	1.519484
1.610000	1.529147
1.611000	1.535267
1.612000	1.552338
1.613000	1.581971
1.614000	1.615469
1.615000	1.639626
1.616000	1.670547
1.617000	1.686329
1.618000	1.685685
1.619000	1.645745
1.620000	1.600330
1.621000	1.562645
1.622000	1.530114
1.623000	1.507245
1.624000	1.496294
1.625000	1.503058
1.626000	1.517874
1.627000	1.541065
1.628000	1.587768
1.629000	1.595177
1.630000	1.600974
1.631000	1.604839
1.632000	1.605806
1.633000	1.590989
1.634000	1.567154
1.635000	1.544930
1.636000	1.535589
1.637000	1.532046
1.638000	1.523672
1.639000	1.511754
1.640000	1.518196
1.641000	1.552016
1.642000	1.600652
1.643000	1.629319
1.644000	1.652832
1.645000	1.658629
1.646000	1.633828
1.647000	1.591956
1.648000	1.547507
1.649000	1.539132
1.650000	1.550406
1.651000	1.556525
1.652000	1.582615
1.653000	1.612892
1.654000	1.636727
1.655000	1.640592
1.656000	1.616757
1.657000	1.592278
1.658000	1.576495
1.659000	1.563611
1.660000	1.544286
1.661000	1.491784
1.662000	1.463762
1.663000	1.470526
1.664000	1.468271
1.665000	1.476646
1.666000	1.502413
1.667000	1.565544
1.668000	1.614824
1.669000	1.658307
1.670000	1.704045
1.671000	1.722404
1.672000	1.703723
1.673000	1.663461
1.674000	1.612892
1.675000	1.545896
1.676000	1.499837
1.677000	1.474391
1.678000	1.453133
1.679000	1.463762
1.680000	1.487919
1.681000	1.499192
1.682000	1.497582
1.683000	1.499192
1.684000	1.513043
1.685000	1.517230
1.686000	1.526571
1.687000	1.554593
1.688000	1.575529
1.689000	1.583903
1.690000	1.575851
1.691000	1.543642
1.692000	1.505634
1.693000	1.480189
1.694000	1.451522
1.695000	1.447657
1.696000	1.463440
1.697000	1.481799
1.698000	1.507245
1.699000	1.545252
1.700000	1.578106
1.701000	1.604839
1.702000	1.616435
1.703000	1.633184
1.704000	1.648966
1.705000	1.656053
1.706000	1.666682
1.707000	1.675056
1.708000	1.666037
1.709000	1.648644
1.710000	1.633184
1.711000	1.592600
1.712000	1.548473
1.713000	1.494039
1.714000	1.471814
1.715000	1.476002
1.716000	1.511754
1.717000	1.553626
1.718000	1.587124
1.719000	1.599686
1.720000	1.591312
1.721000	1.572308
1.722000	1.563611
1.723000	1.559102
1.724000	1.549439
1.725000	1.546862
1.726000	1.532046
1.727000	1.570375
1.728000	1.614180
1.729000	1.639626
1.730000	1.653798
1.731000	1.661206
1.732000	1.637049
1.733000	1.616757
1.734000	1.615791
1.735000	1.583259
1.736000	1.541709
1.737000	1.538810
1.738000	1.513365
1.739000	1.483088
1.740000	1.473425
1.741000	1.472781
1.742000	1.483088
1.743000	1.503058
1.744000	1.557814
1.745000	1.610637
1.746000	1.663783
1.747000	1.694704
1.748000	1.695348
1.749000	1.679888
1.750000	1.635438
1.751000	1.557169
1.752000	1.474391
1.753000	1.426721
1.754000	1.416092
1.755000	1.432197
1.756000	1.458609
1.757000	1.489208
1.758000	1.525926
1.759000	1.549117
1.760000	1.551694
1.761000	1.550728
1.762000	1.546862
1.763000	1.540743
1.764000	1.529469
1.765000	1.511432
1.766000	1.516586
1.767000	1.548473
1.768000	1.580360
1.769000	1.598398
1.770000	1.604517
1.771000	1.608383
1.772000	1.594855
1.773000	1.578106
1.774000	1.580360
1.775000	1.596465
1.776000	1.608060
1.777000	1.592278
1.778000	1.583903
1.779000	1.582937
1.780000	1.565222
1.781000	1.522061
1.782000	1.514975
1.783000	1.507567
1.784000	1.496294
1.785000	1.493073
1.786000	1.503380
1.787000	1.523994
1.788000	1.529791
1.789000	1.544286
1.790000	1.558136
1.791000	1.577139
1.792000	1.583581
1.793000	1.594210
1.794000	1.603229
1.795000	1.622555
1.796000	1.630285
1.797000	1.637049
1.798000	1.640592
1.799000	1.636727
1.800000	1.643491
1.801000	1.652832
1.802000	1.647034
1.803000	1.628997
1.804000	1.597753
1.805000	1.567477
1.806000	1.548795
1.807000	1.539776
1.808000	1.525604
1.809000	1.504990
1.810000	1.507567
1.811000	1.518518
1.812000	1.514331
1.813000	1.519807
1.814000	1.542675
1.815000	1.579716
1.816000	1.601941
1.817000	1.618367
1.818000	1.616113
1.819000	1.602585
1.820000	1.576817
1.821000	1.555237
1.822000	1.541387
1.823000	1.544608
1.824000	1.551694
1.825000	1.570053
1.826000	1.609027
1.827000	1.653798
1.828000	1.667326
1.829000	1.655730
1.830000	1.635116
1.831000	1.599686
1.832000	1.544930
1.833000	1.509499
1.834000	1.502736
1.835000	1.514009
1.836000	1.542353
1.837000	1.560713
1.838000	1.579072
1.839000	1.564256
1.840000	1.553949
1.841000	1.549117
1.842000	1.536878
1.843000	1.529147
1.844000	1.518518
1.845000	1.499192
1.846000	1.480189
1.847000	1.475035
1.848000	1.488885
1.849000	1.510144
1.850000	1.533334
1.851000	1.554915
1.852000	1.553304
1.853000	1.538810
1.854000	1.543964
1.855000	1.536555
1.856000	1.534945
1.857000	1.527537
1.858000	1.542031
1.859000	1.555559
1.860000	1.571664
1.861000	1.591634
1.862000	1.610315
1.863000	1.629641
1.864000	1.641880
1.865000	1.645101
1.866000	1.638659
1.867000	1.615469
1.868000	1.573918
1.869000	1.539132
1.870000	1.554593
1.871000	1.546540
1.872000	1.521095
1.873000	1.480189
1.874000	1.469560
1.875000	1.474069
1.876000	1.473425
1.877000	1.493073
1.878000	1.521417
1.879000	1.538810
1.880000	1.559746
1.881000	1.581649
1.882000	1.578750
1.883000	1.593566
1.884000	1.610637
1.885000	1.627386
1.886000	1.643491
1.887000	1.649611
1.888000	1.645423
1.889000	1.623521
1.890000	1.595177
1.891000	1.582293
1.892000	1.576817
1.893000	1.577784
1.894000	1.591312
1.895000	1.620300
1.896000	1.635438
1.897000	1.654442
1.898000	1.675700
1.899000	1.672801
1.900000	1.664749
1.901000	1.634472
1.902000	1.597431
1.903000	1.569409
1.904000	1.527537
1.905000	1.490818
1.906000	1.467949
1.907000	1.462796
1.908000	1.467949
1.909000	1.487597
1.910000	1.536555
1.911000	1.604839
1.912000	1.668614
1.913000	1.704367
1.914000	1.728846
1.915000	1.726913
1.916000	1.689872
1.917000	1.648966
1.918000	1.611926
1.919000	1.565544
1.920000	1.505312
1.921000	1.462796
1.922000	1.462152
1.923000	1.481477
1.924000	1.481477
1.925000	1.474391
1.926000	1.474391
1.927000	1.485987
1.928000	1.509177
1.929000	1.532690
1.930000	1.571020
1.931000	1.591956
1.932000	1.600330
1.933000	1.598720
1.934000	1.572630
1.935000	1.540098
1.936000	1.522383
1.937000	1.512720
1.938000	1.515297
1.939000	1.510466
1.940000	1.517230
1.941000	1.540743
1.942000	1.572630
1.943000	1.581649
1.944000	1.567799
1.945000	1.579716
1.946000	1.601619
1.947000	1.596465
1.948000	1.581004
1.949000	1.553949
1.950000	1.509499
1.951000	1.473747
1.952000	1.477290
1.953000	1.471170
1.954000	1.480511
1.955000	1.508211
1.956000	1.532690
1.957000	1.551050
1.958000	1.572308
1.959000	1.586158
1.960000	1.590667
1.961000	1.589379
1.962000	1.608383
1.963000	1.596787
1.964000	1.566188
1.965000	1.560068
1.966000	1.554271
1.967000	1.562967
1.968000	1.578106
1.969000	1.605484
1.970000	1.617723
1.971000	1.636727
1.972000	1.657663
1.973000	1.650577
1.974000	1.648644
1.975000	1.637693
1.976000	1.612248
1.977000	1.581327
1.978000	1.536233
1.979000	1.489852
1.980000	1.485020
1.981000	1.499515
1.982000	1.536878
1.983000	1.570697
1.984000	1.575851
1.985000	1.553949
1.986000	1.534301
1.987000	1.540743
1.988000	1.561357
1.989000	1.587124
1.990000	1.597431
1.991000	1.592278
1.992000	1.567799
1.993000	1.547829
1.994000	1.532690
1.995000	1.511432
1.996000	1.488885
1.997000	1.489852
1.998000	1.515619
1.999000	1.572630
2.000000	1.628997
2.001000	1.683108
2.002000	1.700824
2.003000	1.705655
2.004000	1.717895
2.005000	1.728524
2.006000	1.707266
2.007000	1.628997
2.008000	1.574240
2.009000	1.513043
2.010000	1.457642
2.011000	1.445725
2.012000	1.437028
2.013000	1.417380
2.014000	1.406107
2.015000	1.413193
2.016000	1.435096
2.017000	1.460863
2.018000	1.488563
2.019000	1.511432
2.020000	1.523672
2.021000	1.532046
2.022000	1.532690
2.023000	1.552338
2.024000	1.574240
2.025000	1.586480
2.026000	1.598075
2.027000	1.594855
2.028000	1.587446
2.029000	1.594855
2.030000	1.600974
2.031000	1.619012
2.032000	1.642202
2.033000	1.663783
2.034000	1.691161
2.035000	1.686651
2.036000	1.671835
2.037000	1.678599
2.038000	1.671191
2.039000	1.664105
2.040000	1.647678
2.041000	1.604839
2.042000	1.572630
2.043000	1.529791
2.044000	1.495649
2.045000	1.479223
2.046000	1.463118
2.047000	1.442182
2.048000	1.456354
2.049000	1.501769
2.050000	1.527859
2.051000	1.553304
2.052000	1.570697
2.053000	1.586158
2.054000	1.590345
2.055000	1.586480
2.056000	1.570375
2.057000	1.554593
2.058000	1.516263
2.059000	1.487919
2.060000	1.478901
2.061000	1.489530
2.062000	1.499192
2.063000	1.532690
2.064000	1.572308
2.065000	1.614180
2.066000	1.667004
2.067000	1.688584
2.068000	1.677633
2.069000	1.640592
2.070000	1.607738
2.071000	1.566832
2.072000	1.500803
2.073000	1.458286
2.074000	1.446047
2.075000	1.462474
2.076000	1.495327
2.077000	1.536233
2.078000	1.573918
2.079000	1.586802
2.080000	1.568121
2.081000	1.570053
2.082000	1.571664
2.083000	1.573274
2.084000	1.572952
2.085000	1.542997
2.086000	1.541065
2.087000	1.571986
2.088000	1.587768
2.089000	1.586158
2.090000	1.572952
2.091000	1.572952
2.092000	1.590345
2.093000	1.597753
2.094000	1.597753
2.095000	1.598398
2.096000	1.612892
2.097000	1.610315
2.098000	1.606128
2.099000	1.603873
2.100000	1.589701
2.101000	1.556203
2.102000	1.522705
2.103000	1.494361
2.104000	1.476646
2.105000	1.495972
2.106000	1.511754
2.107000	1.512076
2.108000	1.499515
2.109000	1.496938
2.110000	1.507245
2.111000	1.544930
2.112000	1.578428
2.113000	1.610637
2.114000	1.645423
2.115000	1.667970
2.116000	1.688906
2.117000	1.702112
2.118000	1.694060
2.119000	1.664427
2.120000	1.653476
2.121000	1.642525
2.122000	1.632218
2.123000	1.616757
2.124000	1.601619
2.125000	1.603229
2.126000	1.598075
2.127000	1.575207
2.128000	1.568765
2.129000	1.546862
2.130000	1.539132
2.131000	1.521417
2.132000	1.498226
2.133000	1.449912
2.134000	1.408684
2.135000	1.406751
2.136000	1.441538
2.137000	1.489852
2.138000	1.534945
2.139000	1.569731
2.140000	1.581004
2.141000	1.605484
2.142000	1.629319
2.143000	1.650899
2.144000	1.626742
2.145000	1.590345
2.146000	1.581649
2.147000	1.576495
2.148000	1.566188
2.149000	1.557814
2.150000	1.507889
2.151000	1.450556
2.152000	1.451200
2.153000	1.465050
2.154000	1.477612
2.155000	1.500481
2.156000	1.544286
2.157000	1.581971
2.158000	1.607416
2.159000	1.603229
2.160000	1.593888
2.161000	1.592922
2.162000	1.590667
2.163000	1.582615
2.164000	1.569087
2.165000	1.574240
2.166000	1.574885
2.167000	1.557492
2.168000	1.556203
2.169000	1.546862
2.170000	1.534301
2.171000	1.545896
2.172000	1.569087
2.173000	1.599042
2.174000	1.624487
2.175000	1.649611
2.176000	1.672801
2.177000	1.681820
2.178000	1.676989
2.179000	1.675378
2.180000	1.667970
2.181000	1.625776
2.182000	1.579072
2.183000	1.546540
2.184000	1.515297
2.185000	1.475357
2.186000	1.437350
2.187000	1.418991
2.188000	1.420924
2.189000	1.436706
2.190000	1.462796
2.191000	1.477934
2.192000	1.511110
2.193000	1.541709
2.194000	1.560068
2.195000	1.574563
2.196000	1.589701
2.197000	1.609671
2.198000	1.620622
2.199000	1.622877
2.200000	1.616757
2.201000	1.613536
2.202000	1.609993
2.203000	1.620300
2.204000	1.634150
2.205000	1.648322
2.206000	1.661528
2.207000	1.663139
2.208000	1.635761
2.209000	1.600008
2.210000	1.562323
2.211000	1.512720
2.212000	1.451522
2.213000	1.428976
2.214000	1.456998
2.215000	1.490818
2.216000	1.526571
2.217000	1.544608
2.218000	1.551050
2.219000	1.552016
2.220000	1.558136
2.221000	1.562967
2.222000	1.526571
2.223000	1.500159
2.224000	1.495972
2.225000	1.521417
2.226000	1.552982
2.227000	1.578106
2.228000	1.600330
2.229000	1.609671
2.230000	1.597753
2.231000	1.576173
2.232000	1.573274
2.233000	1.568121
2.234000	1.557814
2.235000	1.543319
2.236000	1.516263
2.237000	1.502736
2.238000	1.509177
2.239000	1.517874
2.240000	1.536878
2.241000	1.561035
2.242000	1.567477
2.243000	1.575529
2.244000	1.603229
2.245000	1.659918
2.246000	1.702434
2.247000	1.728202
2.248000	1.738831
2.249000	1.731423
2.250000	1.704367
2.251000	1.679243
2.252000	1.648322
2.253000	1.614824
2.254000	1.544930
2.255000	1.479867
2.256000	1.469238
2.257000	1.473747
2.258000	1.481155
2.259000	1.477612
2.260000	1.476002
2.261000	1.468271
2.262000	1.477934
2.263000	1.525282
2.264000	1.557169
2.265000	1.593244
2.266000	1.610959
2.267000	1.630607
2.268000	1.667648
2.269000	1.679243
2.270000	1.684397
2.271000	1.679243
2.272000	1.662494
2.273000	1.620300
2.274000	1.573274
2.275000	1.521095
2.276000	1.486953
2.277000	1.465373
2.278000	1.466661
2.279000	1.476324
2.280000	1.495005
2.281000	1.528181
2.282000	1.546540
2.283000	1.567799
2.284000	1.587124
2.285000	1.580360
2.286000	1.555559
2.287000	1.548151
2.288000	1.575529
2.289000	1.606772
2.290000	1.625131
2.291000	1.629319
2.292000	1.628997
2.293000	1.620622
2.294000	1.604195
2.295000	1.577461
2.296000	1.549439
2.297000	1.522705
2.298000	1.498870
2.299000	1.485987
2.300000	1.490496
2.301000	1.499515
2.302000	1.510788
2.303000	1.517874
2.304000	1.525604
2.305000	1.547829
2.306000	1.573274
2.307000	1.569731
2.308000	1.578106
2.309000	1.585514
2.310000	1.590989
2.311000	1.586480
2.312000	1.581327
2.313000	1.581327
2.314000	1.592600
2.315000	1.608383
2.316000	1.629319
2.317000	1.653798
2.318000	1.665071
2.319000	1.657663
2.320000	1.651543
2.321000	1.644135
2.322000	1.621266
2.323000	1.577784
2.324000	1.547185
2.325000	1.500159
2.326000	1.458931
2.327000	1.436062
2.328000	1.424467
2.329000	1.445403
2.330000	1.483410
2.331000	1.519484
2.332000	1.570375
2.333000	1.609671
2.334000	1.631251
2.335000	1.642525
2.336000	1.646068
2.337000	1.637693
2.338000	1.627386
2.339000	1.619978
2.340000	1.612570
2.341000	1.593888
2.342000	1.551050
2.343000	1.518196
2.344000	1.512076
2.345000	1.528825
2.346000	1.556525
2.347000	1.582937
2.348000	1.572630
2.349000	1.561679
2.350000	1.557492
2.351000	1.547185
2.352000	1.521739
2.353000	1.503380
2.354000	1.483088
2.355000	1.501769
2.356000	1.530436
2.357000	1.548151
2.358000	1.571342
2.359000	1.597753
2.360000	1.631895
2.361000	1.655086
2.362000	1.660884
2.363000	1.643491
2.364000	1.574885
2.365000	1.538810
2.366000	1.538488
2.367000	1.535911
2.368000	1.524638
2.369000	1.499837
2.370000	1.488241
2.371000	1.497904
2.372000	1.528181
2.373000	1.540421
2.374000	1.551372
2.375000	1.558136
2.376000	1.570375
2.377000	1.588413
2.378000	1.610315
2.379000	1.627386
2.380000	1.658951
2.381000	1.668936
2.382000	1.671835
2.383000	1.656697
2.384000	1.622233
2.385000	1.592600
2.386000	1.555559
2.387000	1.501447
2.388000	1.465695
2.389000	1.456998
2.390000	1.487919
2.391000	1.538488
2.392000	1.585514
2.393000	1.626420
2.394000	1.650255
2.395000	1.650577
2.396000	1.638659
2.397000	1.605484
2.398000	1.569409
2.399000	1.556203
2.400000	1.552982
2.401000	1.524316
2.402000	1.518518
2.403000	1.513687
2.404000	1.512398
2.405000	1.515941
2.406000	1.498870
2.407000	1.501769
2.408000	1.516263
2.409000	1.535911
2.410000	1.557169
2.411000	1.564256
2.412000	1.575851
2.413000	1.591634
2.414000	1.598075
2.415000	1.626420
2.416000	1.665071
2.417000	1.694060
2.418000	1.719183
2.419000	1.737542
2.420000	1.740441
2.421000	1.724659
2.422000	1.685363
2.423000	1.622233
2.424000	1.555881
2.425000	1.523350
2.426000	1.486953
2.427000	1.457320
2.428000	1.451845
2.429000	1.458931
2.430000	1.479867
2.431000	1.473747
2.432000	1.477934
2.433000	1.498870
2.434000	1.517874
2.435000	1.524960
2.436000	1.526571
2.437000	1.526248
2.438000	1.522383
2.439000	1.517230
2.440000	1.511432
2.441000	1.500159
2.442000	1.502091
2.443000	1.519484
2.444000	1.541709
2.445000	1.564256
2.446000	1.577784
2.447000	1.574240
2.448000	1.568765
2.449000	1.570697
2.450000	1.560713
2.451000	1.561035
2.452000	1.553304
2.453000	1.546540
2.454000	1.542353
2.455000	1.549439
2.456000	1.549439
2.457000	1.556525
2.458000	1.563611
2.459000	1.566188
2.460000	1.565544
2.461000	1.574240
2.462000	1.584870
2.463000	1.605806
2.464000	1.619656
2.465000	1.632862
2.466000	1.647356
2.467000	1.650255
2.468000	1.651865
2.469000	1.643813
2.470000	1.631573
2.471000	1.609349
2.472000	1.583259
2.473000	1.566188
2.474000	1.555559
2.475000	1.551050
2.476000	1.553304
2.477000	1.544930
2.478000	1.525926
2.479000	1.504024
2.480000	1.488885
2.481000	1.485665
2.482000	1.466983
2.483000	1.472137
2.484000	1.504990
2.485000	1.528181
2.486000	1.542675
2.487000	1.554915
2.488000	1.567477
2.489000	1.575207
2.490000	1.589701
2.491000	1.609027
2.492000	1.623843
2.493000	1.643491
2.494000	1.648322
2.495000	1.649611
2.496000	1.631573
2.497000	1.591312
2.498000	1.581327
2.499000	1.573274
2.500000	1.563289
2.501000	1.543319
2.502000	1.542353
2.503000	1.568765
2.504000	1.596465
2.505000	1.617723
2.506000	1.624487
2.507000	1.673768
2.508000	1.691161
2.509000	1.682464
2.510000	1.643813
2.511000	1.575207
2.512000	1.545896
2.513000	1.526248
2.514000	1.511432
2.515000	1.526571
2.516000	1.538166
2.517000	1.551372
2.518000	1.549439
2.519000	1.546540
2.520000	1.547185
2.521000	1.540421
2.522000	1.542675
2.523000	1.528503
2.524000	1.503058
2.525000	1.476002
2.526000	1.455066
2.527000	1.467949
2.528000	1.481155
2.529000	1.484054
2.530000	1.499192
2.531000	1.520451
2.532000	1.541387
2.533000	1.557814
2.534000	1.575207
2.535000	1.604839
2.536000	1.650899
2.537000	1.683431
2.538000	1.698891
2.539000	1.700502
2.540000	1.664427
2.541000	1.622233
2.542000	1.582615
2.543000	1.569087
2.544000	1.537522
2.545000	1.501769
2.546000	1.497260
2.547000	1.495005
2.548000	1.492751
2.549000	1.487919
2.550000	1.493717
2.551000	1.510144
2.552000	1.548795
2.553000	1.586480
2.554000	1.612248
2.555000	1.627064
2.556000	1.638981
2.557000	1.634150
2.558000	1.612892
2.559000	1.584548
2.560000	1.566510
2.561000	1.574563
2.562000	1.579394
2.563000	1.591634
2.564000	1.610315
2.565000	1.634794
2.566000	1.621588
2.567000	1.576173
2.568000	1.548151
2.569000	1.527859
2.570000	1.504024
2.571000	1.484698
2.572000	1.477934
2.573000	1.490496
2.574000	1.484376
2.575000	1.490818
2.576000	1.496938
2.577000	1.512720
2.578000	1.523672
2.579000	1.528503
2.580000	1.520451
2.581000	1.503380
2.582000	1.502413
2.583000	1.522061
2.584000	1.545574
2.585000	1.563933
2.586000	1.579716
2.587000	1.592278
2.588000	1.590989
2.589000	1.585192
2.590000	1.606128
2.591000	1.638015
2.592000	1.666360
2.593000	1.675378
2.594000	1.661850
2.595000	1.648644
2.596000	1.633828
2.597000	1.609349
2.598000	1.579072
2.599000	1.527215
2.600000	1.480511
2.601000	1.453455
2.602000	1.451200
2.603000	1.480833
2.604000	1.507567
2.605000	1.534945
2.606000	1.581327
2.607000	1.636727
2.608000	1.681820
2.609000	1.707588
2.610000	1.726269
2.611000	1.724337
2.612000	1.701468
2.613000	1.663461
2.614000	1.616113
2.615000	1.588735
2.616000	1.555559
2.617000	1.524638
2.618000	1.492751
2.619000	1.498870
2.620000	1.500803
2.621000	1.481799
2.622000	1.482766
2.623000	1.495005
2.624000	1.503380
2.625000	1.512720
2.626000	1.532046
2.627000	1.558780
2.628000	1.559746
2.629000	1.554915
2.630000	1.569087
2.631000	1.602263
2.632000	1.638981
2.633000	1.649933
2.634000	1.642202
2.635000	1.605484
2.636000	1.559102
2.637000	1.529791
2.638000	1.485665
2.639000	1.463762
2.640000	1.477290
2.641000	1.475680
2.642000	1.464728
2.643000	1.466983
2.644000	1.482766
2.645000	1.500481
2.646000	1.518196
2.647000	1.533657
2.648000	1.544608
2.649000	1.553949
2.650000	1.569409
2.651000	1.583259
2.652000	1.598398
2.653000	1.630607
2.654000	1.649289
2.655000	1.672479
2.656000	1.679565
2.657000	1.680210
2.658000	1.682786
2.659000	1.660562
2.660000	1.639948
2.661000	1.610315
2.662000	1.594532
2.663000	1.581327
2.664000	1.554915
2.665000	1.518840
2.666000	1.485665
2.667000	1.493717
2.668000	1.511754
2.669000	1.528503
2.670000	1.539132
2.671000	1.552338
2.672000	1.556203
2.673000	1.549761
2.674000	1.555881
2.675000	1.546862
2.676000	1.543964
2.677000	1.540098
2.678000	1.533657
2.679000	1.537844
2.680000	1.556525
2.681000	1.571342
2.682000	1.591634
2.683000	1.593244
2.684000	1.593244
2.685000	1.596143
2.686000	1.584548
2.687000	1.570375
2.688000	1.538810
2.689000	1.520129
2.690000	1.525604
2.691000	1.526248
2.692000	1.531724
2.693000	1.540421
2.694000	1.553304
2.695000	1.565866
2.696000	1.551372
2.697000	1.563611
2.698000	1.599686
2.699000	1.626742
2.700000	1.647034
2.701000	1.657019
2.702000	1.653798
2.703000	1.633184
2.704000	1.605806
2.705000	1.590667
2.706000	1.576495
2.707000	1.568443
2.708000	1.586802
2.709000	1.607738
2.710000	1.630929
2.711000	1.647034
2.712000	1.621266
2.713000	1.599042
2.714000	1.581327
2.715000	1.575851
2.716000	1.551372
2.717000	1.533657
2.718000	1.522705
2.719000	1.505956
2.720000	1.504346
2.721000	1.505956
2.722000	1.503058
2.723000	1.503058
2.724000	1.508211
2.725000	1.516908
2.726000	1.529469
2.727000	1.542353
2.728000	1.547185
2.729000	1.537200
2.730000	1.516263
2.731000	1.531402
2.732000	1.556847
2.733000	1.591312
2.734000	1.611603
2.735000	1.614502
2.736000	1.617723
2.737000	1.606450
2.738000	1.599686
2.739000	1.587446
2.740000	1.564578
2.741000	1.559424
2.742000	1.562001
2.743000	1.560068
2.744000	1.557814
2.745000	1.565866
2.746000	1.569409
2.747000	1.574563
2.748000	1.580682
2.749000	1.589057
2.750000	1.598075
2.751000	1.622877
2.752000	1.645101
2.753000	1.665393
2.754000	1.681498
2.755000	1.684397
2.756000	1.684719
2.757000	1.684719
2.758000	1.667970
2.759000	1.637693
2.760000	1.601619
2.761000	1.579394
2.762000	1.566188
2.763000	1.564256
2.764000	1.567154
2.765000	1.558136
2.766000	1.540421
2.767000	1.500481
2.768000	1.458609
2.769000	1.437672
2.770000	1.436706
2.771000	1.448946
2.772000	1.480833
2.773000	1.503380
2.774000	1.533657
2.775000	1.523672
2.776000	1.512720
2.777000	1.539454
2.778000	1.572308
2.779000	1.607094
2.780000	1.665071
2.781000	1.719505
2.782000	1.750104
2.783000	1.758479
2.784000	1.741730
2.785000	1.690195
2.786000	1.627064
2.787000	1.566188
2.788000	1.496294
2.789000	1.473747
2.790000	1.466339
2.791000	1.443470
2.792000	1.438961
2.793000	1.481155
2.794000	1.529469
2.795000	1.570375
2.796000	1.606128
2.797000	1.620300
2.798000	1.629963
2.799000	1.629963
2.800000	1.619012
2.801000	1.607094
2.802000	1.567154
2.803000	1.528503
2.804000	1.500159
2.805000	1.497582
2.806000	1.508533
2.807000	1.497582
2.808000	1.498870
2.809000	1.503058
2.810000	1.485020
2.811000	1.498870
2.812000	1.516263
2.813000	1.538488
2.814000	1.550083
2.815000	1.552982
2.816000	1.555237
2.817000	1.559424
2.818000	1.568443
2.819000	1.568121
2.820000	1.568765
2.821000	1.591634
2.822000	1.612892
2.823000	1.634472
2.824000	1.625454
2.825000	1.606128
2.826000	1.608705
2.827000	1.618690
2.828000	1.619978
2.829000	1.607738
2.830000	1.601296
2.831000	1.589379
2.832000	1.578428
2.833000	1.559746
2.834000	1.552660
2.835000	1.539132
2.836000	1.525604
2.837000	1.529147
2.838000	1.549117
2.839000	1.566510
2.840000	1.578750
2.841000	1.576817
2.842000	1.561357
2.843000	1.527537
2.844000	1.504346
2.845000	1.486631
2.846000	1.468916
2.847000	1.445725
2.848000	1.456676
2.849000	1.468916
2.850000	1.483088
2.851000	1.507245
2.852000	1.542031
2.853000	1.568765
2.854000	1.591956
2.855000	1.605484
2.856000	1.618690
2.857000	1.624165
2.858000	1.631573
2.859000	1.625454
2.860000	1.608383
2.861000	1.588735
2.862000	1.566188
2.863000	1.543319
2.864000	1.524960
2.865000	1.534945
2.866000	1.546862
2.867000	1.562645
2.868000	1.551372
2.869000	1.533334
2.870000	1.540743
2.871000	1.549439
2.872000	1.560713
2.873000	1.563289
2.874000	1.565866
2.875000	1.567154
2.876000	1.565544
2.877000	1.562967
2.878000	1.562645
2.879000	1.579394
2.880000	1.608705
2.881000	1.619012
2.882000	1.591312
2.883000	1.588091
2.884000	1.599364
2.885000	1.617723
2.886000	1.611281
2.887000	1.597109
2.888000	1.592278
2.889000	1.571020
2.890000	1.559102
2.891000	1.556203
2.892000	1.562001
2.893000	1.576173
2.894000	1.595821
2.895000	1.629641
2.896000	1.658629
2.897000	1.681498
2.898000	1.682786
2.899000	1.668292
2.900000	1.642525
2.901000	1.639948
2.902000	1.622233
2.903000	1.630607
2.904000	1.598720
2.905000	1.556203
2.906000	1.514331
2.907000	1.473747
2.908000	1.434129
2.909000	1.401276
2.910000	1.376797
2.911000	1.392579
2.912000	1.438961
2.913000	1.464406
2.914000	1.490496
2.915000	1.514975
2.916000	1.528825
2.917000	1.527537
2.918000	1.521417
2.919000	1.525282
2.920000	1.544608
2.921000	1.563933
2.922000	1.594210
2.923000	1.623199
2.924000	1.642525
2.925000	1.639304
2.926000	1.640592
2.927000	1.633506
2.928000	1.630929
2.929000	1.622233
2.930000	1.610959
2.931000	1.600652
2.932000	1.588091
2.933000	1.576817
2.934000	1.573274
2.935000	1.571342
2.936000	1.570053
2.937000	1.554271
2.938000	1.531724
2.939000	1.508855
2.940000	1.501125
2.941000	1.502736
2.942000	1.498548
2.943000	1.511754
2.944000	1.520451
2.945000	1.522061
2.946000	1.528181
2.947000	1.527537
2.948000	1.522705
2.949000	1.526571
2.950000	1.528825
2.951000	1.539454
2.952000	1.549439
2.953000	1.562645
2.954000	1.568121
2.955000	1.574563
2.956000	1.592600
2.957000	1.592922
2.958000	1.593888
2.959000	1.587768
2.960000	1.588091
2.961000	1.594855
2.962000	1.591956
2.963000	1.594855
2.964000	1.604195
2.965000	1.590667
2.966000	1.573918
2.967000	1.554271
2.968000	1.562001
2.969000	1.579394
2.970000	1.589057
2.971000	1.593244
2.972000	1.592600
2.973000	1.582937
2.974000	1.567477
2.975000	1.553304
2.976000	1.560068
2.977000	1.563289
2.978000	1.571020
2.979000	1.582615
2.980000	1.590023
2.981000	1.597753
2.982000	1.621588
2.983000	1.642847
2.984000	1.658951
2.985000	1.671191
2.986000	1.663783
2.987000	1.650577
2.988000	1.659273
2.989000	1.675056
2.990000	1.668292
2.991000	1.661850
2.992000	1.668614
2.993000	1.659596
2.994000	1.625131
2.995000	1.569731
2.996000	1.507889
2.997000	1.460863
2.998000	1.435418
2.999000	1.433485
3.000000	1.463762
3.001000	1.514975
3.002000	1.566510
3.003000	1.607738
3.004000	1.617401
3.005000	1.618045
3.006000	1.616435
3.007000	1.620622
3.008000	1.602907
3.009000	1.575529
3.010000	1.553304
3.011000	1.539132
3.012000	1.529469
3.013000	1.516586
3.014000	1.499837
3.015000	1.483732
3.016000	1.469560
3.017000	1.475357
3.018000	1.477290
3.019000	1.467305
3.020000	1.484054
3.021000	1.478901
3.022000	1.485342
3.023000	1.506279
3.024000	1.528825
3.025000	1.549117
3.026000	1.564256
3.027000	1.572630
3.028000	1.574563
3.029000	1.548473
3.030000	1.551050
3.031000	1.563933
3.032000	1.579072
3.033000	1.590667
3.034000	1.607738
3.035000	1.621910
3.036000	1.617723
3.037000	1.626098
3.038000	1.634472
3.039000	1.628352
3.040000	1.599364
3.041000	1.590989
3.042000	1.589057
3.043000	1.588413
3.044000	1.591634
3.045000	1.587768
3.046000	1.582293
3.047000	1.596143
3.048000	1.605806
3.049000	1.609993
3.050000	1.599686
3.051000	1.580682
3.052000	1.546862
3.053000	1.523027
3.054000	1.495327
3.055000	1.499837
3.056000	1.514653
3.057000	1.527537
3.058000	1.517230
3.059000	1.522383
3.060000	1.531080
3.061000	1.539132
3.062000	1.546540
3.063000	1.555237
3.064000	1.552982
3.065000	1.555237
3.066000	1.552982
3.067000	1.567154
3.068000	1.591312
3.069000	1.627064
3.070000	1.655086
3.071000	1.662172
3.072000	1.657985
3.073000	1.628352
3.074000	1.617401
3.075000	1.610637
3.076000	1.609349
3.077000	1.611926
3.078000	1.628997
3.079000	1.637693
3.080000	1.647678
3.081000	1.649611
3.082000	1.646068
3.083000	1.638337
3.084000	1.621588
3.085000	1.601296
3.086000	1.579394
3.087000	1.567154
3.088000	1.564900
3.089000	1.558136
3.090000	1.549761
3.091000	1.539776
3.092000	1.525282
3.093000	1.508211
3.094000	1.495649
3.095000	1.494361
3.096000	1.494683
3.097000	1.478901
3.098000	1.486953
3.099000	1.501769
3.100000	1.513365
3.101000	1.522061
3.102000	1.523027
3.103000	1.521417
3.104000	1.527215
3.105000	1.534301
3.106000	1.543964
3.107000	1.545252
3.108000	1.539132
3.109000	1.541709
3.110000	1.555559
3.111000	1.567477
3.112000	1.580360
3.113000	1.576817
3.114000	1.585836
3.115000	1.594210
3.116000	1.584225
3.117000	1.596143
3.118000	1.604195
3.119000	1.608705
3.120000	1.626742
3.121000	1.645101
3.122000	1.655408
3.123000	1.657985
3.124000	1.662816
3.125000	1.654120
3.126000	1.628030
3.127000	1.586158
3.128000	1.534301
3.129000	1.489852
3.130000	1.464084
3.131000	1.469560
3.132000	1.478901
3.133000	1.502091
3.134000	1.522061
3.135000	1.521417
3.136000	1.514975
3.137000	1.512076
3.138000	1.520451
3.139000	1.528825
3.140000	1.543642
3.141000	1.554915
3.142000	1.566832
3.143000	1.567477
3.144000	1.574563
3.145000	1.591312
3.146000	1.608705
3.147000	1.625131
3.148000	1.623199
3.149000	1.629963
3.150000	1.664427
3.151000	1.699213
3.152000	1.702434
3.153000	1.695670
3.154000	1.675378
3.155000	1.648644
3.156000	1.612892
3.157000	1.585514
3.158000	1.539454
3.159000	1.502413
3.160000	1.470204
3.161000	1.449268
3.162000	1.460219
3.163000	1.476968
3.164000	1.495972
3.165000	1.535589
3.166000	1.553949
3.167000	1.562001
3.168000	1.558780
3.169000	1.546218
3.170000	1.529147
3.171000	1.514331
3.172000	1.510466
3.173000	1.483410
3.174000	1.495972
3.175000	1.507245
3.176000	1.507889
3.177000	1.512398
3.178000	1.520773
3.179000	1.545896
3.180000	1.564900
3.181000	1.578750
3.182000	1.599364
3.183000	1.620300
3.184000	1.625131
3.185000	1.639626
3.186000	1.646712
3.187000	1.633828
3.188000	1.627386
3.189000	1.621588
3.190000	1.647678
3.191000	1.661850
3.192000	1.663139
3.193000	1.654442
3.194000	1.628030
3.195000	1.573274
3.196000	1.519484
3.197000	1.484376
3.198000	1.473747
3.199000	1.477290
3.200000	1.466661
3.201000	1.490818
3.202000	1.507567
3.203000	1.545896
3.204000	1.567154
3.205000	1.588735
3.206000	1.611926
3.207000	1.607094
3.208000	1.586480
3.209000	1.564256
3.210000	1.554593
3.211000	1.568443
3.212000	1.550728
3.213000	1.538166
3.214000	1.540743
3.215000	1.547829
3.216000	1.546862
3.217000	1.533657
3.218000	1.542997
3.219000	1.562645
3.220000	1.559746
3.221000	1.553304
3.222000	1.544930
3.223000	1.550728
3.224000	1.562323
3.225000	1.568443
3.226000	1.571020
3.227000	1.574240
3.228000	1.586480
3.229000	1.605484
3.230000	1.622877
3.231000	1.639626
3.232000	1.645101
3.233000	1.664749
3.234000	1.691161
3.235000	1.704689
3.236000	1.705655
3.237000	1.715318
3.238000	1.709842
3.239000	1.672157
3.240000	1.606128
3.241000	1.542353
3.242000	1.478256
3.243000	1.435740
3.244000	1.437028
3.245000	1.478256
3.246000	1.516908
3.247000	1.540743
3.248000	1.564900
3.249000	1.587446
3.250000	1.584225
3.251000	1.564900
3.252000	1.527859
3.253000	1.502736
3.254000	1.500481
3.255000	1.506923
3.256000	1.505312
3.257000	1.517874
3.258000	1.528825
3.259000	1.527215
3.260000	1.519484
3.261000	1.520129
3.262000	1.530436
3.263000	1.528181
3.264000	1.517874
3.265000	1.512398
3.266000	1.518518
3.267000	1.535911
3.268000	1.544930
3.269000	1.540098
3.270000	1.542353
3.271000	1.536878
3.272000	1.541709
3.273000	1.549439
3.274000	1.544286
3.275000	1.542675
3.276000	1.558136
3.277000	1.580360
3.278000	1.591634
3.279000	1.600008
3.280000	1.626098
3.281000	1.653798
3.282000	1.665393
3.283000	1.648000
3.284000	1.631573
3.285000	1.611603
3.286000	1.590989
3.287000	1.569087
3.288000	1.552016
3.289000	1.527215
3.290000	1.510144
3.291000	1.515297
3.292000	1.542353
3.293000	1.581327
3.294000	1.604839
3.295000	1.625454
3.296000	1.629641
3.297000	1.630285
3.298000	1.639304
3.299000	1.634794
3.300000	1.620622
3.301000	1.602585
3.302000	1.573918
3.303000	1.555237
3.304000	1.544286
3.305000	1.548151
3.306000	1.544286
3.307000	1.512398
3.308000	1.491784
3.309000	1.499192
3.310000	1.507245
3.311000	1.529469
3.312000	1.542353
3.313000	1.549761
3.314000	1.562323
3.315000	1.584225
3.316000	1.615469
3.317000	1.659273
3.318000	1.708554
3.319000	1.737865
3.320000	1.744629
3.321000	1.748172
3.322000	1.740441
3.323000	1.700502
3.324000	1.649611
3.325000	1.602907
3.326000	1.576173
3.327000	1.552982
3.328000	1.553304
3.329000	1.540421
3.330000	1.544930
3.331000	1.527859
3.332000	1.487597
3.333000	1.462152
3.334000	1.453777
3.335000	1.470526
3.336000	1.488563
3.337000	1.500159
3.338000	1.509499
3.339000	1.512076
3.340000	1.493395
3.341000	1.473425
3.342000	1.478901
3.343000	1.473747
3.344000	1.469238
3.345000	1.472137
3.346000	1.468916
3.347000	1.502413
3.348000	1.537522
3.349000	1.552016
3.350000	1.554271
3.351000	1.558136
3.352000	1.545896
3.353000	1.536555
3.354000	1.564900
3.355000	1.592278
3.356000	1.599364
3.357000	1.610959
3.358000	1.616435
3.359000	1.624487
3.360000	1.616113
3.361000	1.581649
3.362000	1.538166
3.363000	1.520451
3.364000	1.541387
3.365000	1.562001
3.366000	1.583259
3.367000	1.590989
3.368000	1.599686
3.369000	1.599686
3.370000	1.609027
3.371000	1.627064
3.372000	1.644135
3.373000	1.649611
3.374000	1.653154
3.375000	1.630929
3.376000	1.609027
3.377000	1.577784
3.378000	1.549439
3.379000	1.526571
3.380000	1.509499
3.381000	1.509177
3.382000	1.514653
3.383000	1.520129
3.384000	1.533334
3.385000	1.551372
3.386000	1.581971
3.387000	1.624165
3.388000	1.668614
3.389000	1.707910
3.390000	1.721438
3.391000	1.714352
3.392000	1.684719
3.393000	1.657663
3.394000	1.617079
3.395000	1.572630
3.396000	1.508855
3.397000	1.475357
3.398000	1.484054
3.399000	1.481477
3.400000	1.484698
3.401000	1.508211
3.402000	1.517874
3.403000	1.518518
3.404000	1.519807
3.405000	1.521739
3.406000	1.523994
3.407000	1.518518
3.408000	1.516586
3.409000	1.515619
3.410000	1.536878
3.411000	1.576495
3.412000	1.612892
3.413000	1.623521
3.414000	1.654120
3.415000	1.671191
3.416000	1.670869
3.417000	1.647678
3.418000	1.614502
3.419000	1.576817
3.420000	1.540743
3.421000	1.495972
3.422000	1.478901
3.423000	1.486953
3.424000	1.483088
3.425000	1.468916
3.426000	1.480833
3.427000	1.511110
3.428000	1.553626
3.429000	1.577784
3.430000	1.599364
3.431000	1.605806
3.432000	1.602907
3.433000	1.598720
3.434000	1.588735
3.435000	1.584548
3.436000	1.589379
3.437000	1.583581
3.438000	1.584548
3.439000	1.583259
3.440000	1.576173
3.441000	1.587124
3.442000	1.562001
3.443000	1.557169
3.444000	1.554593
3.445000	1.556203
3.446000	1.547507
3.447000	1.538166
3.448000	1.549117
3.449000	1.532690
3.450000	1.535589
3.451000	1.552660
3.452000	1.542997
3.453000	1.537844
3.454000	1.525282
3.455000	1.531080
3.456000	1.556203
3.457000	1.583903
3.458000	1.589701
3.459000	1.573596
3.460000	1.592278
3.461000	1.605484
3.462000	1.609671
3.463000	1.619334
3.464000	1.662172
3.465000	1.724659
3.466000	1.776516
3.467000	1.770718
3.468000	1.742696
3.469000	1.713385
3.470000	1.660562
3.471000	1.609993
3.472000	1.556525
3.473000	1.485342
3.474000	1.435740
3.475000	1.404497
3.476000	1.409006
3.477000	1.453777
3.478000	1.491140
3.479000	1.507567
3.480000	1.524960
3.481000	1.546540
3.482000	1.551694
3.483000	1.567799
3.484000	1.561679
3.485000	1.548473
3.486000	1.539132
3.487000	1.535911
3.488000	1.527859
3.489000	1.523994
3.490000	1.543642
3.491000	1.565222
3.492000	1.585514
3.493000	1.587768
3.494000	1.581327
3.495000	1.571664
3.496000	1.552338
3.497000	1.537844
3.498000	1.516586
3.499000	1.503702
3.500000	1.515297
3.501000	1.520451
3.502000	1.520773
3.503000	1.527859
3.504000	1.546540
3.505000	1.561035
3.506000	1.558780
3.507000	1.557814
3.508000	1.573918
3.509000	1.577139
3.510000	1.589701
3.511000	1.634472
3.512000	1.660884
3.513000	1.652832
3.514000	1.645101
3.515000	1.647034
3.516000	1.632218
3.517000	1.614824
3.518000	1.593888
3.519000	1.567154
3.520000	1.577139
3.521000	1.576817
3.522000	1.561035
3.523000	1.561357
3.524000	1.555881
3.525000	1.562001
3.526000	1.578750
3.527000	1.605806
3.528000	1.629963
3.529000	1.643169
3.530000	1.655086
3.531000	1.650255
3.532000	1.619334
3.533000	1.603873
3.534000	1.570053
3.535000	1.534945
3.536000	1.511432
3.537000	1.509822
3.538000	1.508855
3.539000	1.542353
3.540000	1.561679
3.541000	1.553626
3.542000	1.539454
3.543000	1.516908
3.544000	1.507245
3.545000	1.486631
3.546000	1.481799
3.547000	1.493395
3.548000	1.520773
3.549000	1.567477
3.550000	1.594210
3.551000	1.603873
3.552000	1.609671
3.553000	1.602585
3.554000	1.581327
3.555000	1.576495
3.556000	1.574240
3.557000	1.560068
3.558000	1.545896
3.559000	1.526571
3.560000	1.534301
3.561000	1.552016
3.562000	1.576173
3.563000	1.612570
3.564000	1.634150
3.565000	1.635116
3.566000	1.614502
3.567000	1.598720
3.568000	1.587124
3.569000	1.571664
3.570000	1.546862
3.571000	1.523027
3.572000	1.528181
3.573000	1.525926
3.574000	1.549117
3.575000	1.571020
3.576000	1.572308
3.577000	1.560713
3.578000	1.537844
3.579000	1.523027
3.580000	1.542997
3.581000	1.553949
3.582000	1.566510
3.583000	1.578106
3.584000	1.587768
3.585000	1.564900
3.586000	1.585836
3.587000	1.615147
3.588000	1.621266
3.589000	1.602585
3.590000	1.573274
3.591000	1.534301
3.592000	1.518840
3.593000	1.511110
3.594000	1.531402
3.595000	1.548473
3.596000	1.601619
3.597000	1.667004
3.598000	1.726913
3.599000	1.769108
3.600000	1.801317
3.601000	1.780381
3.602000	1.688906
3.603000	1.599364
3.604000	1.523350
3.605000	1.439927
3.606000	1.410294
3.607000	1.398377
3.608000	1.392901
3.609000	1.402886
3.610000	1.444436
3.611000	1.481155
3.612000	1.492751
3.613000	1.510788
3.614000	1.533012
3.615000	1.542353
3.616000	1.551372
3.617000	1.569087
3.618000	1.590023
3.619000	1.591956
3.620000	1.592278
3.621000	1.596465
3.622000	1.606128
3.623000	1.606450
3.624000	1.621910
3.625000	1.646390
3.626000	1.657985
3.627000	1.650899
3.628000	1.653154
3.629000	1.655730
3.630000	1.667004
3.631000	1.675700
3.632000	1.676667
3.633000	1.681176
3.634000	1.659273
3.635000	1.625131
3.636000	1.595821
3.637000	1.550083
3.638000	1.522383
3.639000	1.512076
3.640000	1.511110
3.641000	1.523350
3.642000	1.522061
3.643000	1.522383
3.644000	1.550728
3.645000	1.568765
3.646000	1.559102
3.647000	1.556525
3.648000	1.557492
3.649000	1.553949
3.650000	1.531080
3.651000	1.509822
3.652000	1.511110
3.653000	1.543319
3.654000	1.563933
3.655000	1.580360
3.656000	1.574563
3.657000	1.550728
3.658000	1.549117
3.659000	1.544930
3.660000	1.534623
3.661000	1.527215
3.662000	1.530758
3.663000	1.540098
3.664000	1.552982
3.665000	1.556847
3.666000	1.583581
3.667000	1.614180
3.668000	1.652187
3.669000	1.679565
3.670000	1.705011
3.671000	1.688584
3.672000	1.678921
3.673000	1.673446
3.674000	1.638337
3.675000	1.570375
3.676000	1.496294
3.677000	1.433163
3.678000	1.369711
3.679000	1.358759
3.680000	1.386459
3.681000	1.405785
3.682000	1.444436
3.683000	1.486953
3.684000	1.515941
3.685000	1.543319
3.686000	1.563289
3.687000	1.574240
3.688000	1.569731
3.689000	1.574240
3.690000	1.591956
3.691000	1.611603
3.692000	1.613214
3.693000	1.604839
3.694000	1.589057
3.695000	1.586802
3.696000	1.580682
3.697000	1.594855
3.698000	1.603551
3.699000	1.595499
3.700000	1.624487
3.701000	1.659273
3.702000	1.671191
3.703000	1.666037
3.704000	1.644779
3.705000	1.613214
3.706000	1.586802
3.707000	1.548473
3.708000	1.515297
3.709000	1.509822
3.710000	1.525926
3.711000	1.552016
3.712000	1.570697
3.713000	1.577139
3.714000	1.590667
3.715000	1.619012
3.716000	1.618045
3.717000	1.591956
3.718000	1.565222
3.719000	1.536233
3.720000	1.523994
3.721000	1.519484
3.722000	1.531080
3.723000	1.527859
3.724000	1.518840
3.725000	1.525604
3.726000	1.525604
3.727000	1.534301
3.728000	1.543642
3.729000	1.557492
3.730000	1.578106
3.731000	1.603873
3.732000	1.628352
3.733000	1.635761
3.734000	1.633828
3.735000	1.634150
3.736000	1.634794
3.737000	1.630929
3.738000	1.601619
3.739000	1.529469
3.740000	1.489852
3.741000	1.442826
3.742000	1.433807
3.743000	1.463118
3.744000	1.514653
3.745000	1.571664
3.746000	1.623843
3.747000	1.639948
3.748000	1.623521
3.749000	1.590989
3.750000	1.553304
3.751000	1.524638
3.752000	1.502091
3.753000	1.491462
3.754000	1.504024
3.755000	1.528825
3.756000	1.545574
3.757000	1.561679
3.758000	1.570375
3.759000	1.581004
3.760000	1.601619
3.761000	1.618045
3.762000	1.647356
3.763000	1.657663
3.764000	1.647034
3.765000	1.625776
3.766000	1.607094
3.767000	1.590023
3.768000	1.559424
3.769000	1.517552
3.770000	1.489208
3.771000	1.479545
3.772000	1.519162
3.773000	1.560713
3.774000	1.581649
3.775000	1.608383
3.776000	1.641880
3.777000	1.668292
3.778000	1.679243
3.779000	1.675056
3.780000	1.616435
3.781000	1.562001
3.782000	1.531724
3.783000	1.518196
3.784000	1.524960
3.785000	1.494039
3.786000	1.493717
3.787000	1.494039
3.788000	1.498548
3.789000	1.510144
3.790000	1.514975
3.791000	1.517874
3.792000	1.521739
3.793000	1.538810
3.794000	1.543964
3.795000	1.535589
3.796000	1.539776
3.797000	1.562323
3.798000	1.600008
3.799000	1.630607
3.800000	1.662172
3.801000	1.677633
3.802000	1.671191
3.803000	1.647034
3.804000	1.601941
3.805000	1.583581
3.806000	1.554271
3.807000	1.530436
3.808000	1.514653
3.809000	1.529469
3.810000	1.528503
3.811000	1.536233
3.812000	1.561357
3.813000	1.599042
3.814000	1.637371
3.815000	1.670547
3.816000	1.646712
3.817000	1.633184
3.818000	1.640592
3.819000	1.620944
3.820000	1.589379
3.821000	1.579716
3.822000	1.572630
3.823000	1.566188
3.824000	1.549117
3.825000	1.554593
3.826000	1.553949
3.827000	1.541065
3.828000	1.526571
3.829000	1.505634
3.830000	1.496616
3.831000	1.503702
3.832000	1.509822
3.833000	1.502736
3.834000	1.498226
3.835000	1.476968
3.836000	1.458286
3.837000	1.468916
3.838000	1.510144
3.839000	1.555559
3.840000	1.609349
3.841000	1.653154
3.842000	1.666037
3.843000	1.668936
3.844000	1.671835
3.845000	1.664105
3.846000	1.649289
3.847000	1.617401
3.848000	1.574563
3.849000	1.552338
3.850000	1.552016
3.851000	1.558136
3.852000	1.558458
3.853000	1.579394
3.854000	1.583903
3.855000	1.571986
3.856000	1.545252
3.857000	1.513365
3.858000	1.488241
3.859000	1.491140
3.860000	1.500159
3.861000	1.500481
3.862000	1.510788
3.863000	1.522383
3.864000	1.523027
3.865000	1.537844
3.866000	1.546540
3.867000	1.540421
3.868000	1.538166
3.869000	1.543642
3.870000	1.549761
3.871000	1.561035
3.872000	1.570375
3.873000	1.593888
3.874000	1.612892
3.875000	1.638659
3.876000	1.677633
3.877000	1.702756
3.878000	1.696636
3.879000	1.686007
3.880000	1.684719
3.881000	1.681820
3.882000	1.651221
3.883000	1.592278
3.884000	1.549761
3.885000	1.532690
3.886000	1.531080
3.887000	1.533979
3.888000	1.534945
3.889000	1.543642
3.890000	1.563611
3.891000	1.573274
3.892000	1.566510
3.893000	1.532046
3.894000	1.479867
3.895000	1.437350
3.896000	1.442826
3.897000	1.484054
3.898000	1.509822
3.899000	1.519807
3.900000	1.541709
3.901000	1.577461
3.902000	1.606450
3.903000	1.615147
3.904000	1.612892
3.905000	1.599686
3.906000	1.573274
3.907000	1.542675
3.908000	1.518840
3.909000	1.495649
3.910000	1.486953
3.911000	1.474069
3.912000	1.473747
3.913000	1.510144
3.914000	1.548473
3.915000	1.588735
3.916000	1.625776
3.917000	1.659596
3.918000	1.685041
3.919000	1.700824
3.920000	1.710486
3.921000	1.699535
3.922000	1.671835
3.923000	1.619656
3.924000	1.570375
3.925000	1.537522
3.926000	1.510466
3.927000	1.501125
3.928000	1.514653
3.929000	1.509499
3.930000	1.511754
3.931000	1.508211
3.932000	1.523994
3.933000	1.543964
3.934000	1.551050
3.935000	1.556525
3.936000	1.596143
3.937000	1.623199
3.938000	1.637371
3.939000	1.639948
3.940000	1.626098
3.941000	1.598398
3.942000	1.563611
3.943000	1.528181
3.944000	1.521417
3.945000	1.508533
3.946000	1.485342
3.947000	1.493395
3.948000	1.516586
3.949000	1.550728
3.950000	1.602585
3.951000	1.658629
3.952000	1.703723
3.953000	1.734966
3.954000	1.741730
3.955000	1.729812
3.956000	1.701790
3.957000	1.654764
3.958000	1.579072
3.959000	1.517552
3.960000	1.467627
3.961000	1.434774
3.962000	1.463440
3.963000	1.497904
3.964000	1.520451
3.965000	1.559424
3.966000	1.562323
3.967000	1.551694
3.968000	1.566510
3.969000	1.581649
3.970000	1.584548
3.971000	1.578106
3.972000	1.561357
3.973000	1.547185
3.974000	1.548151
3.975000	1.553626
3.976000	1.568765
3.977000	1.594532
3.978000	1.610315
3.979000	1.624809
3.980000	1.629319
3.981000	1.615469
3.982000	1.606450
3.983000	1.574563
3.984000	1.554271
3.985000	1.548151
3.986000	1.543319
3.987000	1.536233
3.988000	1.541387
3.989000	1.537200
3.990000	1.521739
3.991000	1.501769
3.992000	1.516908
3.993000	1.516263
3.994000	1.514975
3.995000	1.539776
3.996000	1.551372
3.997000	1.567799
3.998000	1.586158
3.999000	1.614180
4.000000	1.631895
4.001000	1.641236
4.002000	1.633828
4.003000	1.615791
4.004000	1.576173
4.005000	1.540421
4.006000	1.511754
4.007000	1.500159
4.008000	1.498548
4.009000	1.518840
4.010000	1.537522
4.011000	1.548151
4.012000	1.558136
4.013000	1.562645
4.014000	1.560068
4.015000	1.554271
4.016000	1.567799
4.017000	1.576817
4.018000	1.582615
4.019000	1.574240
4.020000	1.562645
4.021000	1.573596
4.022000	1.587446
4.023000	1.598720
4.024000	1.608383
4.025000	1.620300
4.026000	1.620300
4.027000	1.593566
4.028000	1.570375
4.029000	1.546540
4.030000	1.537844
4.031000	1.529791
4.032000	1.515619
4.033000	1.502413
4.034000	1.520129
4.035000	1.527537
4.036000	1.540421
4.037000	1.550083
4.038000	1.549117
4.039000	1.566832
4.040000	1.590345
4.041000	1.610637
4.042000	1.629319
4.043000	1.658307
4.044000	1.685685
4.045000	1.709520
4.046000	1.716928
4.047000	1.702434
4.048000	1.703078
4.049000	1.705011
4.050000	1.694060
4.051000	1.683108
4.052000	1.639626
4.053000	1.600974
4.054000	1.560713
4.055000	1.512720
4.056000	1.483088
4.057000	1.446691
4.058000	1.439927
4.059000	1.438317
4.060000	1.454743
4.061000	1.493717
4.062000	1.495972
4.063000	1.523027
4.064000	1.552338
4.065000	1.582293
4.066000	1.601941
4.067000	1.606772
4.068000	1.590667
4.069000	1.542997
4.070000	1.505634
4.071000	1.484698
4.072000	1.483088
4.073000	1.502091
4.074000	1.528825
4.075000	1.542675
4.076000	1.565222
4.077000	1.611926
4.078000	1.658307
4.079000	1.682142
4.080000	1.687296
4.081000	1.673446
4.082000	1.653476
4.083000	1.610637
4.084000	1.553626
4.085000	1.497260
4.086000	1.469882
4.087000	1.460863
4.088000	1.460541
4.089000	1.466017
4.090000	1.472459
4.091000	1.483732
4.092000	1.492106
4.093000	1.512076
4.094000	1.520129
4.095000	1.531402
4.096000	1.554271
4.097000	1.590023
4.098000	1.615469
4.099000	1.649611
4.100000	1.678277
4.101000	1.687296
4.102000	1.691483
4.103000	1.685363
4.104000	1.681820
4.105000	1.669258
4.106000	1.645101
4.107000	1.630929
4.108000	1.605162
4.109000	1.568443
4.110000	1.551372
4.111000	1.542031
4.112000	1.508211
4.113000	1.493395
4.114000	1.504668
4.115000	1.529791
4.116000	1.558136
4.117000	1.581327
4.118000	1.603873
4.119000	1.604517
4.120000	1.600974
4.121000	1.585514
4.122000	1.561679
4.123000	1.522705
4.124000	1.502091
4.125000	1.486631
4.126000	1.490818
4.127000	1.498548
4.128000	1.510466
4.129000	1.523994
4.130000	1.541709
4.131000	1.560068
4.132000	1.577461
4.133000	1.600652
4.134000	1.614180
4.135000	1.630285
4.136000	1.662172
4.137000	1.669903
4.138000	1.672157
4.139000	1.661206
4.140000	1.630929
4.141000	1.576495
4.142000	1.542675
4.143000	1.521095
4.144000	1.529791
4.145000	1.532368
4.146000	1.530436
4.147000	1.539132
4.148000	1.533334
4.149000	1.521739
4.150000	1.512720
4.151000	1.511110
4.152000	1.510144
4.153000	1.519162
4.154000	1.537522
4.155000	1.562001
4.156000	1.586158
4.157000	1.597109
4.158000	1.590023
4.159000	1.592922
4.160000	1.602263
4.161000	1.605162
4.162000	1.602585
4.163000	1.594210
4.164000	1.592922
4.165000	1.588091
4.166000	1.593566
4.167000	1.626098
4.168000	1.640914
4.169000	1.642202
4.170000	1.625776
4.171000	1.592600
4.172000	1.568765
4.173000	1.557492
4.174000	1.562967
4.175000	1.579072
4.176000	1.588091
4.177000	1.605162
4.178000	1.612570
4.179000	1.609349
4.180000	1.588413
4.181000	1.557169
4.182000	1.532046
4.183000	1.514975
4.184000	1.519484
4.185000	1.527859
4.186000	1.535911
4.187000	1.533657
4.188000	1.528181
4.189000	1.534945
4.190000	1.541065
4.191000	1.532690
4.192000	1.518518
4.193000	1.516586
4.194000	1.531402
4.195000	1.550728
4.196000	1.564900
4.197000	1.562645
4.198000	1.562323
4.199000	1.562645
4.200000	1.555881
4.201000	1.557492
4.202000	1.556525
4.203000	1.564256
4.204000	1.567799
4.205000	1.572308
4.206000	1.581971
4.207000	1.577461
4.208000	1.560390
4.209000	1.555237
4.210000	1.546862
4.211000	1.552982
4.212000	1.572630
4.213000	1.580682
4.214000	1.606772
4.215000	1.644779
4.216000	1.664105
4.217000	1.667004
4.218000	1.674412
4.219000	1.676667
4.220000	1.665715
4.221000	1.627386
4.222000	1.614824
4.223000	1.607738
4.224000	1.585514
4.225000	1.562323
4.226000	1.543642
4.227000	1.529469
4.228000	1.498870
4.229000	1.464406
4.230000	1.459253
4.231000	1.499192
4.232000	1.535267
4.233000	1.565222
4.234000	1.576173
4.235000	1.585192
4.236000	1.593888
4.237000	1.609671
4.238000	1.633506
4.239000	1.634472
4.240000	1.640914
4.241000	1.640592
4.242000	1.628352
4.243000	1.577784
4.244000	1.549761
4.245000	1.548151
4.246000	1.548795
4.247000	1.548795
4.248000	1.546218
4.249000	1.551050
4.250000	1.580038
4.251000	1.606128
4.252000	1.622555
4.253000	1.613858
4.254000	1.595177
4.255000	1.571342
4.256000	1.532368
4.257000	1.508211
4.258000	1.494361
4.259000	1.469238
4.260000	1.452167
4.261000	1.446691
4.262000	1.447657
4.263000	1.459897
4.264000	1.479545
4.265000	1.503058
4.266000	1.522383
4.267000	1.539132
4.268000	1.547829
4.269000	1.552982
4.270000	1.553626
4.271000	1.536878
4.272000	1.537844
4.273000	1.543319
4.274000	1.561679
4.275000	1.588091
4.276000	1.606450
4.277000	1.613858
4.278000	1.620300
4.279000	1.628352
4.280000	1.637371
4.281000	1.635116
4.282000	1.625131
4.283000	1.599364
4.284000	1.584225
4.285000	1.591956
4.286000	1.591634
4.287000	1.587124
4.288000	1.572952
4.289000	1.554915
4.290000	1.531080
4.291000	1.517230
4.292000	1.530436
4.293000	1.551050
4.294000	1.575851
4.295000	1.589701
4.296000	1.570053
4.297000	1.575529
4.298000	1.624487
4.299000	1.670547
4.300000	1.690839
4.301000	1.677311
4.302000	1.659918
4.303000	1.632540
4.304000	1.599364
4.305000	1.546218
4.306000	1.514331
4.307000	1.514653
4.308000	1.526893
4.309000	1.531402
4.310000	1.532046
4.311000	1.536555
4.312000	1.539132
4.313000	1.548151
4.314000	1.554915
4.315000	1.549439
4.316000	1.543642
4.317000	1.542997
4.318000	1.549439
4.319000	1.555881
4.320000	1.564900
4.321000	1.576817
4.322000	1.590667
4.323000	1.603551
4.324000	1.597109
4.325000	1.587124
4.326000	1.593566
4.327000	1.599042
4.328000	1.581327
4.329000	1.561035
4.330000	1.542675
4.331000	1.547829
4.332000	1.586158
4.333000	1.632540
4.334000	1.670225
4.335000	1.687940
4.336000	1.702756
4.337000	1.701790
4.338000	1.705011
4.339000	1.691805
4.340000	1.660562
4.341000	1.621266
4.342000	1.573918
4.343000	1.538488
4.344000	1.519162
4.345000	1.483732
4.346000	1.444114
4.347000	1.416092
4.348000	1.392257
4.349000	1.421246
4.350000	1.447013
4.351000	1.483732
4.352000	1.513043
4.353000	1.538488
4.354000	1.549117
4.355000	1.559424
4.356000	1.559746
4.357000	1.547185
4.358000	1.540743
4.359000	1.542031
4.360000	1.546862
4.361000	1.542997
4.362000	1.550728
4.363000	1.569087
4.364000	1.563611
4.365000	1.553304
4.366000	1.571020
4.367000	1.597109
4.368000	1.603229
4.369000	1.600330
4.370000	1.605484
4.371000	1.624487
4.372000	1.656697
4.373000	1.677311
4.374000	1.704689
4.375000	1.700502
4.376000	1.659273
4.377000	1.629319
4.378000	1.602263
4.379000	1.569087
4.380000	1.531724
4.381000	1.508533
4.382000	1.476968
4.383000	1.453133
4.384000	1.454099
4.385000	1.478578
4.386000	1.496294
4.387000	1.510466
4.388000	1.540098
4.389000	1.570053
4.390000	1.599364
4.391000	1.622555
4.392000	1.645101
4.393000	1.667004
4.394000	1.685041
4.395000	1.688584
4.396000	1.665071
4.397000	1.620622
4.398000	1.578750
4.399000	1.557169
4.400000	1.572630
4.401000	1.586158
4.402000	1.565544
4.403000	1.513365
4.404000	1.498870
4.405000	1.516263
4.406000	1.530436
4.407000	1.538166
4.408000	1.533979
4.409000	1.538166
4.410000	1.554593
4.411000	1.571342
4.412000	1.575851
4.413000	1.567799
4.414000	1.540421
4.415000	1.552982
4.416000	1.547185
4.417000	1.539776
4.418000	1.542675
4.419000	1.562645
4.420000	1.568443
4.421000	1.572308
4.422000	1.565866
4.423000	1.555881
4.424000	1.560068
4.425000	1.552338
4.426000	1.542031
4.427000	1.554593
4.428000	1.575851
4.429000	1.575529
4.430000	1.579716
4.431000	1.580360
4.432000	1.590023
4.433000	1.613858
4.434000	1.630929
4.435000	1.630929
4.436000	1.611281
4.437000	1.586480
4.438000	1.557169
4.439000	1.542353
4.440000	1.562645
4.441000	1.574240
4.442000	1.584548
4.443000	1.617079
4.444000	1.634794
4.445000	1.636405
4.446000	1.639304
4.447000	1.637049
4.448000	1.611603
4.449000	1.570053
4.450000	1.539454
4.451000	1.522705
4.452000	1.511110
4.453000	1.510466
4.454000	1.512720
4.455000	1.533657
4.456000	1.589701
4.457000	1.623843
4.458000	1.643169
4.459000	1.647356
4.460000	1.623521
4.461000	1.590667
4.462000	1.582615
4.463000	1.581327
4.464000	1.559102
4.465000	1.534623
4.466000	1.510144
4.467000	1.504024
4.468000	1.496938
4.469000	1.494683
4.470000	1.508855
4.471000	1.530114
4.472000	1.543319
4.473000	1.551372
4.474000	1.560390
4.475000	1.565544
4.476000	1.564578
4.477000	1.561357
4.478000	1.555881
4.479000	1.524638
4.480000	1.529147
4.481000	1.559424
4.482000	1.597753
4.483000	1.628674
4.484000	1.650577
4.485000	1.653154
4.486000	1.652509
4.487000	1.623843
4.488000	1.583903
4.489000	1.547507
4.490000	1.520129
4.491000	1.499515
4.492000	1.494361
4.493000	1.499837
4.494000	1.540098
4.495000	1.586158
4.496000	1.609349
4.497000	1.631895
4.498000	1.647356
4.499000	1.692771
4.500000	1.722404
4.501000	1.723370
4.502000	1.702434
4.503000	1.688906
4.504000	1.658307
4.505000	1.609993
4.506000	1.559424
4.507000	1.503058
4.508000	1.470848
4.509000	1.460863
4.510000	1.456998
4.511000	1.468593
4.512000	1.495972
4.513000	1.510144
4.514000	1.510466
4.515000	1.520451
4.516000	1.522705
4.517000	1.508533
4.518000	1.509499
4.519000	1.520129
4.520000	1.528503
4.521000	1.535589
4.522000	1.545252
4.523000	1.560713
4.524000	1.606450
4.525000	1.659273
4.526000	1.689872
4.527000	1.709520
4.528000	1.715318
4.529000	1.719505
4.530000	1.724337
4.531000	1.715318
4.532000	1.700824
4.533000	1.659273
4.534000	1.612892
4.535000	1.542031
4.536000	1.489208
4.537000	1.466339
4.538000	1.451845
4.539000	1.432841
4.540000	1.413837
4.541000	1.416092
4.542000	1.430908
4.543000	1.467627
4.544000	1.509822
4.545000	1.540098
4.546000	1.563933
4.547000	1.576495
4.548000	1.610959
4.549000	1.636727
4.550000	1.665715
4.551000	1.681820
4.552000	1.681176
4.553000	1.676022
4.554000	1.632540
4.555000	1.580360
4.556000	1.548795
4.557000	1.519162
4.558000	1.487919
4.559000	1.479867
4.560000	1.485342
4.561000	1.512720
4.562000	1.541065
4.563000	1.545896
4.564000	1.547829
4.565000	1.547829
4.566000	1.537522
4.567000	1.539132
4.568000	1.543964
4.569000	1.567799
4.570000	1.577784
4.571000	1.597109
4.572000	1.604839
4.573000	1.597431
4.574000	1.596787
4.575000	1.584870
4.576000	1.562645
4.577000	1.555237
4.578000	1.570053
4.579000	1.599364
4.580000	1.623521
4.581000	1.637049
4.582000	1.648644
4.583000	1.658629
4.584000	1.656697
4.585000	1.608383
4.586000	1.577784
4.587000	1.549117
4.588000	1.519807
4.589000	1.524960
4.590000	1.540421
4.591000	1.545896
4.592000	1.538488
4.593000	1.560713
4.594000	1.577139
4.595000	1.574240
4.596000	1.565866
4.597000	1.567154
4.598000	1.562323
4.599000	1.571664
4.600000	1.560390
4.601000	1.545574
4.602000	1.549117
4.603000	1.569409
4.604000	1.591956
4.605000	1.620300
4.606000	1.640270
4.607000	1.656053
4.608000	1.665393
4.609000	1.667648
4.610000	1.637049
4.611000	1.597753
4.612000	1.562645
4.613000	1.542997
4.614000	1.548795
4.615000	1.556525
4.616000	1.587768
4.617000	1.602585
4.618000	1.597753
4.619000	1.589057
4.620000	1.571664
4.621000	1.551372
4.622000	1.518518
4.623000	1.455710
4.624000	1.419957
4.625000	1.407718
4.626000	1.415448
4.627000	1.446047
4.628000	1.485020
4.629000	1.523027
4.630000	1.541709
4.631000	1.542353
4.632000	1.566832
4.633000	1.563933
4.634000	1.559746
4.635000	1.555881
4.636000	1.570053
4.637000	1.596143
4.638000	1.625776
4.639000	1.633506
4.640000	1.641558
4.641000	1.639626
4.642000	1.617401
4.643000	1.597753
4.644000	1.572308
4.645000	1.552338
4.646000	1.543642
4.647000	1.537522
4.648000	1.552660
4.649000	1.566188
4.650000	1.575207
4.651000	1.566188
4.652000	1.540421
4.653000	1.541065
4.654000	1.558780
4.655000	1.550406
4.656000	1.545574
4.657000	1.556525
4.658000	1.571342
4.659000	1.560713
4.660000	1.541065
4.661000	1.540098
4.662000	1.537200
4.663000	1.545896
4.664000	1.572630
4.665000	1.593244
4.666000	1.612570
4.667000	1.647678
4.668000	1.670547
4.669000	1.686651
4.670000	1.682786
4.671000	1.673446
4.672000	1.664105
4.673000	1.637693
4.674000	1.620944
4.675000	1.630607
4.676000	1.643169
4.677000	1.619012
4.678000	1.586158
4.679000	1.573274
4.680000	1.568765
4.681000	1.544608
4.682000	1.531724
4.683000	1.538166
4.684000	1.553626
4.685000	1.557492
4.686000	1.556203
4.687000	1.562001
4.688000	1.569409
4.689000	1.574885
4.690000	1.558458
4.691000	1.541065
4.692000	1.526571
4.693000	1.521095
4.694000	1.526248
4.695000	1.538810
4.696000	1.560390
4.697000	1.583259
4.698000	1.602263
4.699000	1.589701
4.700000	1.577139
4.701000	1.561357
4.702000	1.536878
4.703000	1.523350
4.704000	1.515619
4.705000	1.497582
4.706000	1.496616
4.707000	1.511754
4.708000	1.528825
4.709000	1.512720
4.710000	1.513043
4.711000	1.515619
4.712000	1.531724
4.713000	1.557492
4.714000	1.589701
4.715000	1.609349
4.716000	1.615147
4.717000	1.621588
4.718000	1.606128
4.719000	1.580360
4.720000	1.563289
4.721000	1.552660
4.722000	1.537844
4.723000	1.535589
4.724000	1.543319
4.725000	1.577139
4.726000	1.608705
4.727000	1.625131
4.728000	1.622233
4.729000	1.618045
4.730000	1.630607
4.731000	1.633828
4.732000	1.646712
4.733000	1.642525
4.734000	1.639304
4.735000	1.620622
4.736000	1.610315
4.737000	1.614502
4.738000	1.600330
4.739000	1.558458
4.740000	1.519162
4.741000	1.502413
4.742000	1.506923
4.743000	1.520451
4.744000	1.551050
4.745000	1.574563
4.746000	1.575851
4.747000	1.570053
4.748000	1.567799
4.749000	1.576495
4.750000	1.562323
4.751000	1.565222
4.752000	1.558780
4.753000	1.514331
4.754000	1.485987
4.755000	1.503702
4.756000	1.517230
4.757000	1.542997
4.758000	1.563611
4.759000	1.578750
4.760000	1.591956
4.761000	1.600330
4.762000	1.609671
4.763000	1.627064
4.764000	1.628030
4.765000	1.607738
4.766000	1.575529
4.767000	1.575529
4.768000	1.595821
4.769000	1.598720
4.770000	1.617079
4.771000	1.630285
4.772000	1.642525
4.773000	1.628674
4.774000	1.633828
4.775000	1.653476
4.776000	1.643491
4.777000	1.621588
4.778000	1.575207
4.779000	1.549761
4.780000	1.502413
4.781000	1.477290
4.782000	1.472459
4.783000	1.479223
4.784000	1.474069
4.785000	1.464084
4.786000	1.473747
4.787000	1.494039
4.788000	1.510144
4.789000	1.516586
4.790000	1.526248
4.791000	1.552338
4.792000	1.578106
4.793000	1.604195
4.794000	1.641236
4.795000	1.684075
4.796000	1.713063
4.797000	1.715962
4.798000	1.684719
4.799000	1.643169
4.800000	1.596787
4.801000	1.545574
4.802000	1.482444
4.803000	1.440249
4.804000	1.443470
4.805000	1.471492
4.806000	1.529147
4.807000	1.581649
4.808000	1.622877
4.809000	1.649289
4.810000	1.664749
4.811000	1.647678
4.812000	1.615469
4.813000	1.577784
4.814000	1.529469
4.815000	1.510788
4.816000	1.521739
4.817000	1.536233
4.818000	1.548795
4.819000	1.557492
4.820000	1.575851
4.821000	1.596787
4.822000	1.602585
4.823000	1.586802
4.824000	1.581327
4.825000	1.586480
4.826000	1.576817
4.827000	1.565544
4.828000	1.534301
4.829000	1.484698
4.830000	1.462474
4.831000	1.471170
4.832000	1.493717
4.833000	1.523027
4.834000	1.534945
4.835000	1.542031
4.836000	1.563289
4.837000	1.581649
4.838000	1.597753
4.839000	1.625131
4.840000	1.645423
4.841000	1.657985
4.842000	1.657341
4.843000	1.651543
4.844000	1.637371
4.845000	1.598398
4.846000	1.566188
4.847000	1.547507
4.848000	1.560713
4.849000	1.570375
4.850000	1.540743
4.851000	1.550728
4.852000	1.567154
4.853000	1.573274
4.854000	1.565866
4.855000	1.548795
4.856000	1.523350
4.857000	1.500159
4.858000	1.497582
4.859000	1.501447
4.860000	1.527859
4.861000	1.573274
4.862000	1.611281
4.863000	1.645745
4.864000	1.664749
4.865000	1.660240
4.866000	1.652832
4.867000	1.631251
4.868000	1.602263
4.869000	1.569409
4.870000	1.544930
4.871000	1.531402
4.872000	1.523672
4.873000	1.538166
4.874000	1.565544
4.875000	1.586480
4.876000	1.605806
4.877000	1.614180
4.878000	1.597431
4.879000	1.566832
4.880000	1.536233
4.881000	1.527537
4.882000	1.508211
4.883000	1.511754
4.884000	1.549117
4.885000	1.576173
4.886000	1.603229
4.887000	1.636405
4.888000	1.650577
4.889000	1.658307
4.890000	1.633506
4.891000	1.598075
4.892000	1.580682
4.893000	1.571342
4.894000	1.568443
4.895000	1.563611
4.896000	1.553626
4.897000	1.548473
4.898000	1.549761
4.899000	1.526571
4.900000	1.497260
4.901000	1.492428
4.902000	1.493395
4.903000	1.511432
4.904000	1.534301
4.905000	1.539454
4.906000	1.555559
4.907000	1.571664
4.908000	1.579716
4.909000	1.589701
4.910000	1.588091
4.911000	1.570375
4.912000	1.569731
4.913000	1.594855
4.914000	1.611603
4.915000	1.619334
4.916000	1.618045
4.917000	1.615147
4.918000	1.591312
4.919000	1.569731
4.920000	1.548151
4.921000	1.520773
4.922000	1.508855
4.923000	1.512720
4.924000	1.501769
4.925000	1.517552
4.926000	1.542353
4.927000	1.531402
4.928000	1.542031
4.929000	1.558780
4.930000	1.576817
4.931000	1.599042
4.932000	1.633184
4.933000	1.659918
4.934000	1.684719
4.935000	1.679888
4.936000	1.629641
4.937000	1.577784
4.938000	1.549439
4.939000	1.521095
4.940000	1.504668
4.941000	1.494039
4.942000	1.499192
4.943000	1.506923
4.944000	1.532368
4.945000	1.533334
4.946000	1.549761
4.947000	1.561035
4.948000	1.572952
4.949000	1.578428
4.950000	1.595177
4.951000	1.592600
4.952000	1.579716
4.953000	1.587124
4.954000	1.594210
4.955000	1.589057
4.956000	1.580038
4.957000	1.581004
4.958000	1.579716
4.959000	1.586802
4.960000	1.586480
4.961000	1.588413
4.962000	1.609993
4.963000	1.629641
4.964000	1.647034
4.965000	1.664105
4.966000	1.667004
4.967000	1.648322
4.968000	1.617723
4.969000	1.567154
4.970000	1.517552
4.971000	1.490818
4.972000	1.486631
4.973000	1.498226
4.974000	1.533979
4.975000	1.563611
4.976000	1.569731
4.977000	1.564256
4.978000	1.554915
4.979000	1.546540
4.980000	1.545574
4.981000	1.543319
4.982000	1.536878
4.983000	1.523027
4.984000	1.505312
4.985000	1.521417
4.986000	1.552016
4.987000	1.580038
4.988000	1.619012
4.989000	1.648322
4.990000	1.667004
4.991000	1.667970
4.992000	1.670547
4.993000	1.636727
4.994000	1.600330
4.995000	1.554271
4.996000	1.508855
4.997000	1.501125
4.998000	1.525282
4.999000	1.536555
5.000000	1.557814
5.001000	1.555237
5.002000	1.524960
5.003000	1.514653
5.004000	1.534301
5.005000	1.571664
5.006000	1.586480
5.007000	1.588735
5.008000	1.572630
5.009000	1.543642
5.010000	1.515619
5.011000	1.479223
5.012000	1.471492
5.013000	1.496616
5.014000	1.526893
5.015000	1.560068
5.016000	1.579072
5.017000	1.591312
5.018000	1.587768
5.019000	1.578106
5.020000	1.579716
5.021000	1.581649
5.022000	1.575529
5.023000	1.548795
5.024000	1.548151
5.025000	1.568765
5.026000	1.580038
5.027000	1.581649
5.028000	1.561035
5.029000	1.554593
5.030000	1.563289
5.031000	1.560713
5.032000	1.569409
5.033000	1.605806
5.034000	1.626420
5.035000	1.620622
5.036000	1.605162
5.037000	1.602585
5.038000	1.600974
5.039000	1.584548
5.040000	1.569731
5.041000	1.566188
5.042000	1.555559
5.043000	1.552982
5.044000	1.548151
5.045000	1.554915
5.046000	1.559746
5.047000	1.561357
5.048000	1.596465
5.049000	1.626098
5.050000	1.642525
5.051000	1.631251
5.052000	1.607738
5.053000	1.579394
5.054000	1.559424
5.055000	1.539454
5.056000	1.511432
5.057000	1.519162
5.058000	1.536555
5.059000	1.543319
5.060000	1.564578
5.061000	1.586802
5.062000	1.598720
5.063000	1.609349
5.064000	1.622233
5.065000	1.632218
5.066000	1.644457
5.067000	1.674734
5.068000	1.721438
5.069000	1.773939
5.070000	1.830306
5.071000	1.883773
5.072000	1.912118
5.073000	1.880552
5.074000	1.797774
5.075000	1.667970
5.076000	1.541387
5.077000	1.459253
5.078000	1.391613
5.079000	1.341044
5.080000	1.316565
5.081000	1.313022
5.082000	1.357149
5.083000	1.401276
5.084000	1.429942
5.085000	1.457964
5.086000	1.470848
5.087000	1.497904
5.088000	1.521095
5.089000	1.550406
5.090000	1.567154
5.091000	1.566510
5.092000	1.558458
5.093000	1.546862
5.094000	1.523350
5.095000	1.526571
5.096000	1.548473
5.097000	1.584548
5.098000	1.607416
5.099000	1.617079
5.100000	1.648000
5.101000	1.655730
5.102000	1.630929
5.103000	1.612248
5.104000	1.590667
5.105000	1.570053
5.106000	1.533334
5.107000	1.495972
5.108000	1.463118
5.109000	1.458286
5.110000	1.473747
5.111000	1.500481
5.112000	1.509822
5.113000	1.521417
5.114000	1.529791
5.115000	1.544930
5.116000	1.550406
5.117000	1.563289
5.118000	1.536878
5.119000	1.528181
5.120000	1.538810
5.121000	1.554593
5.122000	1.570053
5.123000	1.572630
5.124000	1.580360
5.125000	1.589057
5.126000	1.585836
5.127000	1.599364
5.128000	1.611603
5.129000	1.627386
5.130000	1.631895
5.131000	1.638337
5.132000	1.637049
5.133000	1.655730
5.134000	1.672801
5.135000	1.664105
5.136000	1.657341
5.137000	1.627064
5.138000	1.603873
5.139000	1.602907
5.140000	1.583259
5.141000	1.557492
5.142000	1.526571
5.143000	1.507245
5.144000	1.493073
5.145000	1.500481
5.146000	1.500481
5.147000	1.508211
5.148000	1.525282
5.149000	1.543642
5.150000	1.590667
5.151000	1.650577
5.152000	1.694382
5.153000	1.735288
5.154000	1.759123
5.155000	1.766209
5.156000	1.776194
5.157000	1.753325
5.158000	1.712097
5.159000	1.670225
5.160000	1.611603
5.161000	1.549761
5.162000	1.512398
5.163000	1.507889
5.164000	1.500803
5.165000	1.467305
5.166000	1.436706
5.167000	1.429942
5.168000	1.455066
5.169000	1.514653
5.170000	1.550728
5.171000	1.577784
5.172000	1.587768
5.173000	1.584870
5.174000	1.570375
5.175000	1.540743
5.176000	1.523027
5.177000	1.519162
5.178000	1.518196
5.179000	1.517874
5.180000	1.528825
5.181000	1.524316
5.182000	1.528181
5.183000	1.523350
5.184000	1.493395
5.185000	1.473425
5.186000	1.489852
5.187000	1.502091
5.188000	1.518840
5.189000	1.541709
5.190000	1.564578
5.191000	1.578750
5.192000	1.595821
5.193000	1.595821
5.194000	1.594210
5.195000	1.583903
5.196000	1.582293
5.197000	1.568121
5.198000	1.552338
5.199000	1.550406
5.200000	1.561357
5.201000	1.566510
5.202000	1.570053
5.203000	1.589057
5.204000	1.581004
5.205000	1.581649
5.206000	1.591634
5.207000	1.605806
5.208000	1.625776
5.209000	1.636083
5.210000	1.639304
5.211000	1.650255
5.212000	1.650577
5.213000	1.634794
5.214000	1.624487
5.215000	1.608383
5.216000	1.570053
5.217000	1.564578
5.218000	1.573596
5.219000	1.575529
5.220000	1.588413
5.221000	1.607416
5.222000	1.610959
5.223000	1.616113
5.224000	1.616435
5.225000	1.614824
5.226000	1.609349
5.227000	1.598075
5.228000	1.577461
5.229000	1.575529
5.230000	1.593888
5.231000	1.602907
5.232000	1.623521
5.233000	1.649289
5.234000	1.647678
5.235000	1.643169
5.236000	1.621266
5.237000	1.618690
5.238000	1.619656
5.239000	1.577461
5.240000	1.510788
5.241000	1.500481
5.242000	1.507889
5.243000	1.507567
5.244000	1.495649
5.245000	1.457964
5.246000	1.432519
5.247000	1.451845
5.248000	1.482766
5.249000	1.507245
5.250000	1.522061
5.251000	1.523672
5.252000	1.525926
5.253000	1.532368
5.254000	1.538488
5.255000	1.542353
5.256000	1.553626
5.257000	1.573596
5.258000	1.603551
5.259000	1.620622
5.260000	1.632218
5.261000	1.635761
5.262000	1.627708
5.263000	1.613214
5.264000	1.610959
5.265000	1.609027
5.266000	1.585514
5.267000	1.581327
5.268000	1.580682
5.269000	1.574885
5.270000	1.569409
5.271000	1.545574
5.272000	1.529791
5.273000	1.504346
5.274000	1.508855
5.275000	1.511754
5.276000	1.519807
5.277000	1.546540
5.278000	1.557169
5.279000	1.578428
5.280000	1.580682
5.281000	1.579394
5.282000	1.574563
5.283000	1.559746
5.284000	1.569087
5.285000	1.572952
5.286000	1.582937
5.287000	1.600974
5.288000	1.625131
5.289000	1.649933
5.290000	1.674734
5.291000	1.702756
5.292000	1.714030
5.293000	1.697925
5.294000	1.665715
5.295000	1.626420
5.296000	1.597109
5.297000	1.559424
5.298000	1.540421
5.299000	1.529147
5.300000	1.539132
5.301000	1.546862
5.302000	1.546862
5.303000	1.571020
5.304000	1.588413
5.305000	1.601619
5.306000	1.603873
5.307000	1.595499
5.308000	1.571664
5.309000	1.555237
5.310000	1.534945
5.311000	1.514653
5.312000	1.520773
5.313000	1.504668
5.314000	1.521739
5.315000	1.556847
5.316000	1.572630
5.317000	1.565544
5.318000	1.548473
5.319000	1.526571
5.320000	1.516908
5.321000	1.524638
5.322000	1.530114
5.323000	1.525604
5.324000	1.516263
5.325000	1.514975
5.326000	1.524960
5.327000	1.548795
5.328000	1.574885
5.329000	1.582615
5.330000	1.596143
5.331000	1.613858
5.332000	1.628030
5.333000	1.614502
5.334000	1.603229
5.335000	1.585836
5.336000	1.578750
5.337000	1.574563
5.338000	1.584548
5.339000	1.586480
5.340000	1.592600
5.341000	1.587768
5.342000	1.576173
5.343000	1.568765
5.344000	1.571664
5.345000	1.569087
5.346000	1.570053
5.347000	1.551050
5.348000	1.537522
5.349000	1.541065
5.350000	1.529791
5.351000	1.530114
5.352000	1.524316
5.353000	1.534301
5.354000	1.530436
5.355000	1.523350
5.356000	1.540098
5.357000	1.555881
5.358000	1.566510
5.359000	1.568765
5.360000	1.580360
5.361000	1.586802
5.362000	1.601296
5.363000	1.619012
5.364000	1.650577
5.365000	1.687296
5.366000	1.712097
5.367000	1.723692
5.368000	1.722404
5.369000	1.693738
5.370000	1.640592
5.371000	1.592600
5.372000	1.570375
5.373000	1.544286
5.374000	1.554593
5.375000	1.585836
5.376000	1.579394
5.377000	1.570053
5.378000	1.563611
5.379000	1.555237
5.380000	1.539454
5.381000	1.516263
5.382000	1.482766
5.383000	1.467949
5.384000	1.472459
5.385000	1.494361
5.386000	1.506923
5.387000	1.520129
5.388000	1.549117
5.389000	1.591956
5.390000	1.624487
5.391000	1.651865
5.392000	1.669258
5.393000	1.665715
5.394000	1.658629
5.395000	1.650255
5.396000	1.623199
5.397000	1.580682
5.398000	1.544286
5.399000	1.520129
5.400000	1.524316
5.401000	1.551050
5.402000	1.582615
5.403000	1.603551
5.404000	1.608060
5.405000	1.586802
5.406000	1.569731
5.407000	1.558136
5.408000	1.560713
5.409000	1.565866
5.410000	1.567477
5.411000	1.561035
5.412000	1.541387
5.413000	1.536233
5.414000	1.533657
5.415000	1.545896
5.416000	1.562645
5.417000	1.591634
5.418000	1.601941
5.419000	1.604517
5.420000	1.602907
5.421000	1.598720
5.422000	1.579072
5.423000	1.565544
5.424000	1.560068
5.425000	1.555881
5.426000	1.564900
5.427000	1.581004
5.428000	1.576173
5.429000	1.590023
5.430000	1.607738
5.431000	1.613214
5.432000	1.621266
5.433000	1.620300
5.434000	1.605806
5.435000	1.596143
5.436000	1.588091
5.437000	1.585836
5.438000	1.595821
5.439000	1.598075
5.440000	1.605484
5.441000	1.602585
5.442000	1.579394
5.443000	1.554915
5.444000	1.534301
5.445000	1.529469
5.446000	1.537844
5.447000	1.546862
5.448000	1.562967
5.449000	1.571020
5.450000	1.562645
5.451000	1.523994
5.452000	1.480189
5.453000	1.473103
5.454000	1.476646
5.455000	1.477934
5.456000	1.502091
5.457000	1.536233
5.458000	1.562323
5.459000	1.576495
5.460000	1.609671
5.461000	1.644135
5.462000	1.677955
5.463000	1.712419
5.464000	1.739475
5.465000	1.719505
5.466000	1.695348
5.467000	1.659596
5.468000	1.602907
5.469000	1.528825
5.470000	1.455710
5.471000	1.428654
5.472000	1.416736
5.473000	1.418347
5.474000	1.425111
5.475000	1.460863
5.476000	1.499515
5.477000	1.527859
5.478000	1.551372
5.479000	1.559746
5.480000	1.573918
5.481000	1.592922
5.482000	1.609349
5.483000	1.621588
5.484000	1.631573
5.485000	1.619978
5.486000	1.603229
5.487000	1.582615
5.488000	1.566832
5.489000	1.545574
5.490000	1.528181
5.491000	1.521417
5.492000	1.521417
5.493000	1.515619
5.494000	1.529147
5.495000	1.544608
5.496000	1.566188
5.497000	1.595177
5.498000	1.612570
5.499000	1.623843
5.500000	1.646390
5.501000	1.686007
5.502000	1.726591
5.503000	1.765887
5.504000	1.791010
5.505000	1.790366
5.506000	1.762666
5.507000	1.708232
5.508000	1.641236
5.509000	1.559424
5.510000	1.491784
5.511000	1.433485
5.512000	1.400632
5.513000	1.424789
5.514000	1.442504
5.515000	1.484376
5.516000	1.538166
5.517000	1.578428
5.518000	1.598720
5.519000	1.600974
5.520000	1.589057
5.521000	1.568765
5.522000	1.547829
5.523000	1.532690
5.524000	1.530758
5.525000	1.537844
5.526000	1.552982
5.527000	1.553304
5.528000	1.544930
5.529000	1.533657
5.530000	1.528503
5.531000	1.530758
5.532000	1.548473
5.533000	1.577461
5.534000	1.600008
5.535000	1.611281
5.536000	1.629319
5.537000	1.630285
5.538000	1.632862
5.539000	1.638337
5.540000	1.607416
5.541000	1.571020
5.542000	1.569087
5.543000	1.567154
5.544000	1.557492
5.545000	1.566510
5.546000	1.589379
5.547000	1.577461
5.548000	1.555881
5.549000	1.550728
5.550000	1.543319
5.551000	1.521417
5.552000	1.513365
5.553000	1.525604
5.554000	1.534623
5.555000	1.553626
5.556000	1.558458
5.557000	1.573274
5.558000	1.584548
5.559000	1.580360
5.560000	1.584548
5.561000	1.585836
5.562000	1.570053
5.563000	1.570053
5.564000	1.586802
5.565000	1.614180
5.566000	1.601296
5.567000	1.597753
5.568000	1.586158
5.569000	1.560068
5.570000	1.549439
5.571000	1.557169
5.572000	1.577784
5.573000	1.590667
5.574000	1.598075
5.575000	1.597753
5.576000	1.582937
5.577000	1.587768
5.578000	1.599686
5.579000	1.600652
5.580000	1.603229
5.581000	1.605162
5.582000	1.626420
5.583000	1.645101
5.584000	1.654764
5.585000	1.627064
5.586000	1.601296
5.587000	1.564900
5.588000	1.520773
5.589000	1.484054
5.590000	1.466983
5.591000	1.469882
5.592000	1.475680
5.593000	1.482121
5.594000	1.497582
5.595000	1.525282
5.596000	1.551372
5.597000	1.574885
5.598000	1.605162
5.599000	1.620300
5.600000	1.615147
5.601000	1.611926
5.602000	1.623843
5.603000	1.659918
5.604000	1.701468
5.605000	1.739797
5.606000	1.770718
5.607000	1.777804
5.608000	1.773617
5.609000	1.754613
5.610000	1.715962
5.611000	1.676989
5.612000	1.635438
5.613000	1.599686
5.614000	1.568765
5.615000	1.555881
5.616000	1.508533
5.617000	1.433807
5.618000	1.406751
5.619000	1.404819
5.620000	1.387426
5.621000	1.375508
5.622000	1.394834
5.623000	1.423500
5.624000	1.450556
5.625000	1.475680
5.626000	1.497582
5.627000	1.513687
5.628000	1.522061
5.629000	1.537844
5.630000	1.573596
5.631000	1.616113
5.632000	1.629641
5.633000	1.632540
5.634000	1.622555
5.635000	1.608383
5.636000	1.601296
5.637000	1.606772
5.638000	1.605484
5.639000	1.602263
5.640000	1.579072
5.641000	1.564256
5.642000	1.570375
5.643000	1.586158
5.644000	1.590345
5.645000	1.576495
5.646000	1.530436
5.647000	1.482444
5.648000	1.477612
5.649000	1.493395
5.650000	1.505312
5.651000	1.535911
5.652000	1.570053
5.653000	1.596787
5.654000	1.620622
5.655000	1.625131
5.656000	1.620622
5.657000	1.602263
5.658000	1.575207
5.659000	1.556203
5.660000	1.550406
5.661000	1.539776
5.662000	1.535589
5.663000	1.533979
5.664000	1.541709
5.665000	1.562323
5.666000	1.599364
5.667000	1.645101
5.668000	1.671191
5.669000	1.684075
5.670000	1.700179
5.671000	1.699857
5.672000	1.704045
5.673000	1.676022
5.674000	1.624487
5.675000	1.582937
5.676000	1.545574
5.677000	1.499515
5.678000	1.470526
5.679000	1.484698
5.680000	1.520451
5.681000	1.556525
5.682000	1.590023
5.683000	1.619656
5.684000	1.625776
5.685000	1.621910
5.686000	1.606772
5.687000	1.581327
5.688000	1.552016
5.689000	1.535911
5.690000	1.521739
5.691000	1.523027
5.692000	1.533657
5.693000	1.539454
5.694000	1.547185
5.695000	1.541709
5.696000	1.531402
5.697000	1.529147
5.698000	1.531080
5.699000	1.562323
5.700000	1.584870
5.701000	1.589057
5.702000	1.606450
5.703000	1.642202
5.704000	1.660240
5.705000	1.667970
5.706000	1.677311
5.707000	1.658951
5.708000	1.606450
5.709000	1.566188
5.710000	1.533657
5.711000	1.495005
5.712000	1.467305
5.713000	1.435418
5.714000	1.416736
5.715000	1.436706
5.716000	1.472781
5.717000	1.509822
5.718000	1.539132
5.719000	1.559102
5.720000	1.557492
5.721000	1.555559
5.722000	1.568443
5.723000	1.576495
5.724000	1.581327
5.725000	1.585836
5.726000	1.577139
5.727000	1.573596
5.728000	1.583259
5.729000	1.603873
5.730000	1.608060
5.731000	1.587124
5.732000	1.585836
5.733000	1.570697
5.734000	1.554271
5.735000	1.560713
5.736000	1.550406
5.737000	1.546218
5.738000	1.547185
5.739000	1.569731
5.740000	1.584548
5.741000	1.594210
5.742000	1.591634
5.743000	1.593888
5.744000	1.598720
5.745000	1.625131
5.746000	1.636083
5.747000	1.625131
5.748000	1.605484
5.749000	1.593244
5.750000	1.591956
5.751000	1.630285
5.752000	1.653476
5.753000	1.665715
5.754000	1.660562
5.755000	1.645745
5.756000	1.644457
5.757000	1.636405
5.758000	1.643169
5.759000	1.687618
5.760000	1.724981
5.761000	1.735932
5.762000	1.717895
5.763000	1.643169
5.764000	1.552338
5.765000	1.522383
5.766000	1.499515
5.767000	1.462152
5.768000	1.443148
5.769000	1.448946
5.770000	1.451845
5.771000	1.460863
5.772000	1.481799
5.773000	1.510788
5.774000	1.545252
5.775000	1.561035
5.776000	1.594855
5.777000	1.609993
5.778000	1.609349
5.779000	1.592922
5.780000	1.562323
5.781000	1.527859
5.782000	1.513687
5.783000	1.521739
5.784000	1.533334
5.785000	1.516263
5.786000	1.511754
5.787000	1.530436
5.788000	1.535589
5.789000	1.529791
5.790000	1.545896
5.791000	1.539132
5.792000	1.552660
5.793000	1.557492
5.794000	1.551050
5.795000	1.538488
5.796000	1.540098
5.797000	1.584870
5.798000	1.612248
5.799000	1.624165
5.800000	1.630929
5.801000	1.638337
5.802000	1.608383
5.803000	1.594532
5.804000	1.580038
5.805000	1.571986
5.806000	1.550728
5.807000	1.529791
5.808000	1.520451
5.809000	1.531724
5.810000	1.546862
5.811000	1.565222
5.812000	1.575207
5.813000	1.583259
5.814000	1.605162
5.815000	1.636083
5.816000	1.654442
5.817000	1.655730
5.818000	1.655086
5.819000	1.656375
5.820000	1.656053
5.821000	1.652832
5.822000	1.664427
5.823000	1.710809
5.824000	1.758479
5.825000	1.791976
5.826000	1.825796
5.827000	1.829017
5.828000	1.750426
5.829000	1.648000
5.830000	1.572308
5.831000	1.498870
5.832000	1.435418
5.833000	1.395156
5.834000	1.398055
5.835000	1.424144
5.836000	1.474391
5.837000	1.512076
5.838000	1.496938
5.839000	1.462474
5.840000	1.442504
5.841000	1.447979
5.842000	1.459575
5.843000	1.477290
5.844000	1.505634
5.845000	1.538488
5.846000	1.551050
5.847000	1.551694
5.848000	1.535589
5.849000	1.547829
5.850000	1.582615
5.851000	1.601941
5.852000	1.599364
5.853000	1.586158
5.854000	1.583259
5.855000	1.583259
5.856000	1.574885
5.857000	1.594532
5.858000	1.577461
5.859000	1.567799
5.860000	1.569087
5.861000	1.571986
5.862000	1.568443
5.863000	1.594210
5.864000	1.634150
5.865000	1.652509
5.866000	1.653798
5.867000	1.637371
5.868000	1.635116
5.869000	1.643813
5.870000	1.626098
5.871000	1.586158
5.872000	1.573918
5.873000	1.570375
5.874000	1.556525
5.875000	1.542031
5.876000	1.505634
5.877000	1.471492
5.878000	1.453455
5.879000	1.456032
5.880000	1.460219
5.881000	1.455388
5.882000	1.459575
5.883000	1.462474
5.884000	1.455710
5.885000	1.437028
5.886000	1.462474
5.887000	1.503702
5.888000	1.533657
5.889000	1.561035
5.890000	1.575529
5.891000	1.582615
5.892000	1.578106
5.893000	1.576495
5.894000	1.587446
5.895000	1.592600
5.896000	1.590667
5.897000	1.589057
5.898000	1.589379
5.899000	1.598720
5.900000	1.613536
5.901000	1.588735
5.902000	1.534301
5.903000	1.515619
5.904000	1.509499
5.905000	1.520773
5.906000	1.539776
5.907000	1.564900
5.908000	1.566188
5.909000	1.581971
5.910000	1.607094
5.911000	1.622555
5.912000	1.623843
5.913000	1.623521
5.914000	1.620622
5.915000	1.604195
5.916000	1.584870
5.917000	1.564256
5.918000	1.557169
5.919000	1.545574
5.920000	1.535267
5.921000	1.536878
5.922000	1.554271
5.923000	1.587446
5.924000	1.619656
5.925000	1.648322
5.926000	1.664105
5.927000	1.697281
5.928000	1.725947
5.929000	1.741085
5.930000	1.736254
5.931000	1.683753
5.932000	1.657019
5.933000	1.668614
5.934000	1.665393
5.935000	1.658629
5.936000	1.645423
5.937000	1.631251
5.938000	1.593888
5.939000	1.549117
5.940000	1.530114
5.941000	1.483088
5.942000	1.451522
5.943000	1.441860
5.944000	1.452811
5.945000	1.476646
5.946000	1.498548
5.947000	1.518840
5.948000	1.539776
5.949000	1.581004
5.950000	1.629963
5.951000	1.662816
5.952000	1.668614
5.953000	1.679565
5.954000	1.677633
5.955000	1.651221
5.956000	1.596143
5.957000	1.503058
5.958000	1.462152
5.959000	1.443792
5.960000	1.437028
5.961000	1.440571
5.962000	1.479223
5.963000	1.523027
5.964000	1.523994
5.965000	1.513365
5.966000	1.525604
5.967000	1.536233
5.968000	1.532046
5.969000	1.539776
5.970000	1.557492
5.971000	1.567799
5.972000	1.571664
5.973000	1.569731
5.974000	1.556203
5.975000	1.552660
5.976000	1.568443
5.977000	1.588091
5.978000	1.611281
5.979000	1.630607
5.980000	1.628030
5.981000	1.621910
5.982000	1.619978
5.983000	1.598075
5.984000	1.592922
5.985000	1.563933
5.986000	1.531080
5.987000	1.516586
5.988000	1.510144
5.989000	1.513687
5.990000	1.530114
5.991000	1.535267
5.992000	1.552016
5.993000	1.584548
5.994000	1.620622
5.995000	1.666037
5.996000	1.706943
5.997000	1.724981
5.998000	1.735288
5.999000	1.726269
6.000000	1.712097
6.001000	1.686651
6.002000	1.617079
6.003000	1.561035
6.004000	1.537844
6.005000	1.525282
6.006000	1.491462
6.007000	1.477612
6.008000	1.464406
6.009000	1.478901
6.010000	1.507567
6.011000	1.536878
6.012000	1.560068
6.013000	1.569731
6.014000	1.578106
6.015000	1.572630
6.016000	1.559746
6.017000	1.533657
6.018000	1.511110
6.019000	1.513043
6.020000	1.517874
6.021000	1.518196
6.022000	1.556203
6.023000	1.611926
6.024000	1.635116
6.025000	1.659273
6.026000	1.647034
6.027000	1.628352
6.028000	1.619012
6.029000	1.599686
6.030000	1.586480
6.031000	1.554271
6.032000	1.536555
6.033000	1.524316
6.034000	1.542675
6.035000	1.550083
6.036000	1.557492
6.037000	1.572952
6.038000	1.560390
6.039000	1.550728
6.040000	1.517552
6.041000	1.509822
6.042000	1.515297
6.043000	1.528503
6.044000	1.545574
6.045000	1.552660
6.046000	1.557492
6.047000	1.552338
6.048000	1.544286
6.049000	1.540098
6.050000	1.534945
6.051000	1.552016
6.052000	1.569087
6.053000	1.591634
6.054000	1.610959
6.055000	1.624165
6.056000	1.619012
6.057000	1.623199
6.058000	1.640914
6.059000	1.668292
6.060000	1.718539
6.061000	1.738187
6.062000	1.735610
6.063000	1.704045
6.064000	1.645101
6.065000	1.588413
6.066000	1.547185
6.067000	1.515297
6.068000	1.490818
6.069000	1.485665
6.070000	1.488241
6.071000	1.500803
6.072000	1.508211
6.073000	1.523027
6.074000	1.520129
6.075000	1.503058
6.076000	1.493395
6.077000	1.486631
6.078000	1.499192
6.079000	1.524960
6.080000	1.544608
6.081000	1.557492
6.082000	1.574885
6.083000	1.599686
6.084000	1.614502
6.085000	1.598720
6.086000	1.587768
6.087000	1.586802
6.088000	1.563289
6.089000	1.535267
6.090000	1.506601
6.091000	1.499192
6.092000	1.505312
6.093000	1.516586
6.094000	1.552338
6.095000	1.554593
6.096000	1.585192
6.097000	1.594855
6.098000	1.608383
6.099000	1.619334
6.100000	1.624809
6.101000	1.626742
6.102000	1.635761
6.103000	1.652832
6.104000	1.641558
6.105000	1.617723
6.106000	1.597753
6.107000	1.580038
6.108000	1.549761
6.109000	1.533334
6.110000	1.507889
6.111000	1.496294
6.112000	1.515941
6.113000	1.552982
6.114000	1.589379
6.115000	1.616113
6.116000	1.638337
6.117000	1.648644
6.118000	1.664105
6.119000	1.667648
6.120000	1.658629
6.121000	1.639948
6.122000	1.630285
6.123000	1.625131
6.124000	1.603229
6.125000	1.597753
6.126000	1.580038
6.127000	1.559102
6.128000	1.529147
6.129000	1.492106
6.130000	1.468271
6.131000	1.467305
6.132000	1.477290
6.133000	1.494039
6.134000	1.527537
6.135000	1.553626
6.136000	1.622233
6.137000	1.691161
6.138000	1.738509
6.139000	1.761700
6.140000	1.755258
6.141000	1.706621
6.142000	1.659273
6.143000	1.606128
6.144000	1.526248
6.145000	1.436384
6.146000	1.370033
6.147000	1.329771
6.148000	1.355538
6.149000	1.407718
6.150000	1.443792
6.151000	1.476968
6.152000	1.495972
6.153000	1.507245
6.154000	1.524638
6.155000	1.547185
6.156000	1.560068
6.157000	1.565544
6.158000	1.557814
6.159000	1.564578
6.160000	1.578428
6.161000	1.605806
6.162000	1.614180
6.163000	1.601941
6.164000	1.612570
6.165000	1.626742
6.166000	1.621588
6.167000	1.611926
6.168000	1.595177
6.169000	1.573596
6.170000	1.564256
6.171000	1.563289
6.172000	1.564578
6.173000	1.577139
6.174000	1.582615
6.175000	1.584548
6.176000	1.576817
6.177000	1.561679
6.178000	1.563933
6.179000	1.580360
6.180000	1.588091
6.181000	1.586802
6.182000	1.581649
6.183000	1.582615
6.184000	1.588735
6.185000	1.586802
6.186000	1.585836
6.187000	1.600008
6.188000	1.619978
6.189000	1.633184
6.190000	1.624165
6.191000	1.602263
6.192000	1.587446
6.193000	1.569087
6.194000	1.563933
6.195000	1.555237
6.196000	1.564578
6.197000	1.584870
6.198000	1.623521
6.199000	1.664427
6.200000	1.698569
6.201000	1.706299
6.202000	1.697603
6.203000	1.691805
6.204000	1.671191
6.205000	1.602263
6.206000	1.533657
6.207000	1.476324
6.208000	1.424467
6.209000	1.395800
6.210000	1.408684
6.211000	1.469560
6.212000	1.524316
6.213000	1.563611
6.214000	1.619012
6.215000	1.652509
6.216000	1.660240
6.217000	1.632540
6.218000	1.591634
6.219000	1.568121
6.220000	1.526571
6.221000	1.493717
6.222000	1.478901
6.223000	1.481799
6.224000	1.495327
6.225000	1.521739
6.226000	1.528825
6.227000	1.514653
6.228000	1.516263
6.229000	1.517552
6.230000	1.517552
6.231000	1.519162
6.232000	1.523672
6.233000	1.528825
6.234000	1.530114
6.235000	1.529147
6.236000	1.540098
6.237000	1.559102
6.238000	1.578106
6.239000	1.596787
6.240000	1.577461
6.241000	1.568121
6.242000	1.555881
6.243000	1.563289
6.244000	1.576817
6.245000	1.589057
6.246000	1.600974
6.247000	1.597431
6.248000	1.600974
6.249000	1.614824
6.250000	1.625131
6.251000	1.628674
6.252000	1.618367
6.253000	1.590667
6.254000	1.558136
6.255000	1.530436
6.256000	1.510466
6.257000	1.500803
6.258000	1.496294
6.259000	1.501125
6.260000	1.522061
6.261000	1.546862
6.262000	1.558458
6.263000	1.568443
6.264000	1.591312
6.265000	1.625454
6.266000	1.672157
6.267000	1.697603
6.268000	1.717895
6.269000	1.727880
6.270000	1.713707
6.271000	1.679565
6.272000	1.637371
6.273000	1.583259
6.274000	1.533012
6.275000	1.503702
6.276000	1.468593
6.277000	1.436706
6.278000	1.469560
6.279000	1.510466
6.280000	1.540098
6.281000	1.547507
6.282000	1.562001
6.283000	1.565544
6.284000	1.581971
6.285000	1.591956
6.286000	1.601296
6.287000	1.620622
6.288000	1.612570
