LabVIEW Measurement	
Writer_Version	2
Reader_Version	2
Separator	Tab
Decimal_Separator	.
Multi_Headings	Yes
X_Columns	One
Time_Pref	Relative
Operator	bjl40
Description	Time Domain Data
Date	1903/12/31
Time	19:00:00
***End_of_Header***	
	
Channels	1	
Samples	19492	
Date	1903/12/31	
Time	19:00:00	
X_Dimension	Time	
X0	0.0000000000000000E+0	
Delta_X	0.001000	
***End_of_Header***		
X_Value	Untitled	Comment
0.000000	1.558458	Tare Values:0.000000, 0.000000, 0.000000, 0.000000\0D\0A
0.001000	1.563611
0.002000	1.560068
0.003000	1.563289
0.004000	1.570375
0.005000	1.579072
0.006000	1.584870
0.007000	1.592278
0.008000	1.595821
0.009000	1.592922
0.010000	1.586158
0.011000	1.578106
0.012000	1.576817
0.013000	1.571664
0.014000	1.565222
0.015000	1.565222
0.016000	1.561679
0.017000	1.560068
0.018000	1.563289
0.019000	1.566188
0.020000	1.571986
0.021000	1.581971
0.022000	1.582615
0.023000	1.590023
0.024000	1.591956
0.025000	1.590667
0.026000	1.583581
0.027000	1.581971
0.028000	1.581327
0.029000	1.577461
0.030000	1.568765
0.031000	1.566510
0.032000	1.569731
0.033000	1.563933
0.034000	1.564256
0.035000	1.568121
0.036000	1.563933
0.037000	1.567799
0.038000	1.578428
0.039000	1.579394
0.040000	1.585192
0.041000	1.584548
0.042000	1.583259
0.043000	1.576495
0.044000	1.573918
0.045000	1.573596
0.046000	1.569087
0.047000	1.568121
0.048000	1.563611
0.049000	1.562323
0.050000	1.545252
0.051000	1.532046
0.052000	1.522061
0.053000	1.504346
0.054000	1.503058
0.055000	1.505956
0.056000	1.520773
0.057000	1.531402
0.058000	1.542031
0.059000	1.552338
0.060000	1.565544
0.061000	1.569087
0.062000	1.572952
0.063000	1.571020
0.064000	1.571342
0.065000	1.575851
0.066000	1.587768
0.067000	1.601941
0.068000	1.608383
0.069000	1.610959
0.070000	1.608060
0.071000	1.602907
0.072000	1.611926
0.073000	1.614502
0.074000	1.616113
0.075000	1.602585
0.076000	1.578428
0.077000	1.558780
0.078000	1.538488
0.079000	1.527215
0.080000	1.518840
0.081000	1.512076
0.082000	1.515941
0.083000	1.516263
0.084000	1.525604
0.085000	1.524960
0.086000	1.534945
0.087000	1.530436
0.088000	1.529791
0.089000	1.536233
0.090000	1.546218
0.091000	1.551694
0.092000	1.552338
0.093000	1.550728
0.094000	1.552338
0.095000	1.551050
0.096000	1.553626
0.097000	1.553949
0.098000	1.550083
0.099000	1.547185
0.100000	1.537200
0.101000	1.529469
0.102000	1.532046
0.103000	1.530114
0.104000	1.553626
0.105000	1.572952
0.106000	1.585514
0.107000	1.597109
0.108000	1.603229
0.109000	1.592278
0.110000	1.580360
0.111000	1.549117
0.112000	1.518196
0.113000	1.505634
0.114000	1.501125
0.115000	1.503702
0.116000	1.500803
0.117000	1.516586
0.118000	1.537844
0.119000	1.572952
0.120000	1.590345
0.121000	1.608705
0.122000	1.618690
0.123000	1.619334
0.124000	1.619656
0.125000	1.629319
0.126000	1.621588
0.127000	1.605162
0.128000	1.577139
0.129000	1.549439
0.130000	1.533979
0.131000	1.523350
0.132000	1.522383
0.133000	1.523350
0.134000	1.533012
0.135000	1.552016
0.136000	1.571342
0.137000	1.591956
0.138000	1.614180
0.139000	1.627064
0.140000	1.638981
0.141000	1.638981
0.142000	1.633506
0.143000	1.625776
0.144000	1.620622
0.145000	1.608383
0.146000	1.598720
0.147000	1.572952
0.148000	1.558780
0.149000	1.551050
0.150000	1.549117
0.151000	1.551372
0.152000	1.543642
0.153000	1.541065
0.154000	1.543319
0.155000	1.551372
0.156000	1.561679
0.157000	1.574885
0.158000	1.571342
0.159000	1.576817
0.160000	1.573274
0.161000	1.568765
0.162000	1.579394
0.163000	1.576495
0.164000	1.583903
0.165000	1.575851
0.166000	1.572630
0.167000	1.577461
0.168000	1.577139
0.169000	1.570697
0.170000	1.560390
0.171000	1.552982
0.172000	1.537200
0.173000	1.518840
0.174000	1.489208
0.175000	1.455388
0.176000	1.438639
0.177000	1.440249
0.178000	1.455066
0.179000	1.483410
0.180000	1.507889
0.181000	1.520129
0.182000	1.532690
0.183000	1.536233
0.184000	1.546862
0.185000	1.565544
0.186000	1.581327
0.187000	1.606128
0.188000	1.624165
0.189000	1.637371
0.190000	1.658307
0.191000	1.681820
0.192000	1.691161
0.193000	1.683431
0.194000	1.661850
0.195000	1.645101
0.196000	1.629319
0.197000	1.613858
0.198000	1.571020
0.199000	1.523350
0.200000	1.488241
0.201000	1.448946
0.202000	1.444759
0.203000	1.438317
0.204000	1.436384
0.205000	1.445081
0.206000	1.469882
0.207000	1.497582
0.208000	1.528503
0.209000	1.554915
0.210000	1.585836
0.211000	1.614502
0.212000	1.652832
0.213000	1.673124
0.214000	1.690839
0.215000	1.706943
0.216000	1.702756
0.217000	1.681176
0.218000	1.653798
0.219000	1.624809
0.220000	1.605806
0.221000	1.580682
0.222000	1.562645
0.223000	1.552660
0.224000	1.552338
0.225000	1.557492
0.226000	1.557814
0.227000	1.566832
0.228000	1.566188
0.229000	1.570375
0.230000	1.572308
0.231000	1.573918
0.232000	1.572630
0.233000	1.572308
0.234000	1.580682
0.235000	1.582293
0.236000	1.581004
0.237000	1.589379
0.238000	1.588413
0.239000	1.583259
0.240000	1.583581
0.241000	1.582937
0.242000	1.569087
0.243000	1.553949
0.244000	1.546540
0.245000	1.541709
0.246000	1.542031
0.247000	1.543319
0.248000	1.553626
0.249000	1.565544
0.250000	1.573918
0.251000	1.582615
0.252000	1.586802
0.253000	1.585836
0.254000	1.586480
0.255000	1.584548
0.256000	1.582293
0.257000	1.575207
0.258000	1.562001
0.259000	1.557814
0.260000	1.549117
0.261000	1.538166
0.262000	1.520773
0.263000	1.499837
0.264000	1.486631
0.265000	1.481477
0.266000	1.486631
0.267000	1.503380
0.268000	1.529469
0.269000	1.556847
0.270000	1.584870
0.271000	1.602907
0.272000	1.606128
0.273000	1.611281
0.274000	1.619656
0.275000	1.612570
0.276000	1.601619
0.277000	1.589379
0.278000	1.583903
0.279000	1.580360
0.280000	1.568121
0.281000	1.560068
0.282000	1.528825
0.283000	1.482766
0.284000	1.459253
0.285000	1.445081
0.286000	1.435418
0.287000	1.424789
0.288000	1.443470
0.289000	1.478901
0.290000	1.514331
0.291000	1.559746
0.292000	1.602907
0.293000	1.629319
0.294000	1.649933
0.295000	1.656375
0.296000	1.657985
0.297000	1.657341
0.298000	1.672157
0.299000	1.675378
0.300000	1.667004
0.301000	1.649289
0.302000	1.631895
0.303000	1.625454
0.304000	1.628352
0.305000	1.626742
0.306000	1.615147
0.307000	1.591312
0.308000	1.574240
0.309000	1.558780
0.310000	1.551372
0.311000	1.545574
0.312000	1.544608
0.313000	1.552660
0.314000	1.548151
0.315000	1.547507
0.316000	1.538166
0.317000	1.526571
0.318000	1.523027
0.319000	1.522705
0.320000	1.537200
0.321000	1.547185
0.322000	1.566188
0.323000	1.574885
0.324000	1.567154
0.325000	1.542353
0.326000	1.519807
0.327000	1.505956
0.328000	1.508855
0.329000	1.515619
0.330000	1.534945
0.331000	1.556525
0.332000	1.586480
0.333000	1.612892
0.334000	1.634472
0.335000	1.641236
0.336000	1.638981
0.337000	1.632218
0.338000	1.630929
0.339000	1.640914
0.340000	1.638981
0.341000	1.634794
0.342000	1.620944
0.343000	1.601619
0.344000	1.590345
0.345000	1.577784
0.346000	1.571020
0.347000	1.566188
0.348000	1.564900
0.349000	1.560068
0.350000	1.559424
0.351000	1.558458
0.352000	1.548795
0.353000	1.547507
0.354000	1.541065
0.355000	1.542353
0.356000	1.542675
0.357000	1.542353
0.358000	1.532368
0.359000	1.524960
0.360000	1.513687
0.361000	1.513365
0.362000	1.509177
0.363000	1.495649
0.364000	1.492751
0.365000	1.490818
0.366000	1.500481
0.367000	1.514009
0.368000	1.533012
0.369000	1.551694
0.370000	1.557492
0.371000	1.560390
0.372000	1.577461
0.373000	1.577784
0.374000	1.576817
0.375000	1.578750
0.376000	1.580038
0.377000	1.581649
0.378000	1.576817
0.379000	1.573274
0.380000	1.567799
0.381000	1.550728
0.382000	1.533012
0.383000	1.506923
0.384000	1.413515
0.385000	1.323973
0.386000	1.289831
0.387000	1.287576
0.388000	1.284678
0.389000	1.299816
0.390000	1.319786
0.391000	1.355538
0.392000	1.406107
0.393000	1.468593
0.394000	1.538810
0.395000	1.610637
0.396000	1.684719
0.397000	1.754936
0.398000	1.831916
0.399000	1.911796
0.400000	1.972994
0.401000	1.993608
0.402000	1.948514
0.403000	1.886994
0.404000	1.831916
0.405000	1.774261
0.406000	1.722726
0.407000	1.678277
0.408000	1.647356
0.409000	1.611281
0.410000	1.552660
0.411000	1.516586
0.412000	1.502413
0.413000	1.467627
0.414000	1.420924
0.415000	1.382594
0.416000	1.361014
0.417000	1.360692
0.418000	1.355216
0.419000	1.364235
0.420000	1.390969
0.421000	1.422856
0.422000	1.466661
0.423000	1.526893
0.424000	1.581649
0.425000	1.639626
0.426000	1.696636
0.427000	1.736254
0.428000	1.758801
0.429000	1.764598
0.430000	1.777482
0.431000	1.777482
0.432000	1.761700
0.433000	1.742696
0.434000	1.736898
0.435000	1.712741
0.436000	1.679888
0.437000	1.643491
0.438000	1.597431
0.439000	1.542675
0.440000	1.497260
0.441000	1.405463
0.442000	1.288221
0.443000	1.217038
0.444000	1.171622
0.445000	1.151331
0.446000	1.145855
0.447000	1.145533
0.448000	1.181929
0.449000	1.259232
0.450000	1.367456
0.451000	1.494361
0.452000	1.598720
0.453000	1.682142
0.454000	1.754613
0.455000	1.829339
0.456000	1.892470
0.457000	1.934342
0.458000	1.933376
0.459000	1.896013
0.460000	1.828695
0.461000	1.800673
0.462000	1.785857
0.463000	1.753969
0.464000	1.664105
0.465000	1.581971
0.466000	1.502413
0.467000	1.471170
0.468000	1.453133
0.469000	1.451200
0.470000	1.448946
0.471000	1.451845
0.472000	1.447657
0.473000	1.458286
0.474000	1.474391
0.475000	1.447657
0.476000	1.384205
0.477000	1.357793
0.478000	1.388070
0.479000	1.443792
0.480000	1.528181
0.481000	1.624487
0.482000	1.723370
0.483000	1.801317
0.484000	1.854463
0.485000	1.873788
0.486000	1.853819
0.487000	1.801961
0.488000	1.713063
0.489000	1.574240
0.490000	1.493073
0.491000	1.439927
0.492000	1.370033
0.493000	1.329449
0.494000	1.327516
0.495000	1.351351
0.496000	1.362624
0.497000	1.379373
0.498000	1.412549
0.499000	1.420924
0.500000	1.424144
0.501000	1.418669
0.502000	1.443792
0.503000	1.498226
0.504000	1.522705
0.505000	1.504346
0.506000	1.524960
0.507000	1.581004
0.508000	1.644135
0.509000	1.697925
0.510000	1.724014
0.511000	1.719827
0.512000	1.708554
0.513000	1.620622
0.514000	1.503380
0.515000	1.446691
0.516000	1.447657
0.517000	1.476646
0.518000	1.516263
0.519000	1.554593
0.520000	1.606772
0.521000	1.650899
0.522000	1.673124
0.523000	1.654120
0.524000	1.528181
0.525000	1.486953
0.526000	1.486309
0.527000	1.493073
0.528000	1.498226
0.529000	1.498548
0.530000	1.451522
0.531000	1.411905
0.532000	1.398377
0.533000	1.382594
0.534000	1.391613
0.535000	1.441538
0.536000	1.500159
0.537000	1.571342
0.538000	1.642525
0.539000	1.708554
0.540000	1.778126
0.541000	1.883451
0.542000	1.966552
0.543000	1.937563
0.544000	1.877009
0.545000	1.837070
0.546000	1.814845
0.547000	1.774905
0.548000	1.700502
0.549000	1.630929
0.550000	1.568765
0.551000	1.515619
0.552000	1.406429
0.553000	1.305614
0.554000	1.313022
0.555000	1.323329
0.556000	1.179031
0.557000	1.021204
0.558000	0.966448
0.559000	0.934239
0.560000	0.840832
0.561000	0.769005
0.562000	0.781888
0.563000	0.826337
0.564000	0.928119
0.565000	1.078859
0.566000	1.305936
0.567000	1.579394
0.568000	1.870568
0.569000	2.193629
0.570000	2.371747
0.571000	2.377545
0.572000	2.280916
0.573000	2.172692
0.574000	2.091202
0.575000	1.916627
0.576000	1.784246
0.577000	1.722404
0.578000	1.697281
0.579000	1.744306
0.580000	1.833205
0.581000	1.968484
0.582000	2.096034
0.583000	2.186220
0.584000	2.231636
0.585000	2.268677
0.586000	2.251284
0.587000	2.198782
0.588000	2.099899
0.589000	1.975248
0.590000	1.852208
0.591000	1.704045
0.592000	1.614824
0.593000	1.596143
0.594000	1.628030
0.595000	1.694060
0.596000	1.729490
0.597000	1.703078
0.598000	1.643813
0.599000	1.535911
0.600000	1.446369
0.601000	1.385815
0.602000	1.353284
0.603000	1.372609
0.604000	1.421568
0.605000	1.459253
0.606000	1.493717
0.607000	1.524960
0.608000	1.589379
0.609000	1.671191
0.610000	1.750748
0.611000	1.819032
0.612000	1.873788
0.613000	1.869601
0.614000	1.758156
0.615000	1.574240
0.616000	1.488885
0.617000	1.430264
0.618000	1.398699
0.619000	1.376474
0.620000	1.286932
0.621000	1.249569
0.622000	1.218648
0.623000	1.151975
0.624000	1.074350
0.625000	1.017017
0.626000	0.945190
0.627000	0.893333
0.628000	0.887857
0.629000	0.943902
0.630000	1.057601
0.631000	1.252468
0.632000	1.479223
0.633000	1.672157
0.634000	1.868635
0.635000	2.054806
0.636000	2.212954
0.637000	2.246452
0.638000	2.226160
0.639000	2.211344
0.640000	2.176880
0.641000	2.056416
0.642000	1.838358
0.643000	1.656697
0.644000	1.548151
0.645000	1.361014
0.646000	1.244094
0.647000	1.133937
0.648000	1.071773
0.649000	1.050193
0.650000	1.081758
0.651000	1.065653
0.652000	1.113323
0.653000	1.217038
0.654000	1.381950
0.655000	1.547829
0.656000	1.646068
0.657000	1.648000
0.658000	1.636727
0.659000	1.661206
0.660000	1.774905
0.661000	1.903743
0.662000	2.027428
0.663000	2.097644
0.664000	2.049652
0.665000	2.018087
0.666000	1.997795
0.667000	1.966230
0.668000	1.922425
0.669000	1.909541
0.670000	1.882163
0.671000	1.837714
0.672000	1.789078
0.673000	1.608383
0.674000	1.431231
0.675000	1.298528
0.676000	1.185795
0.677000	1.132327
0.678000	1.067908
0.679000	0.955497
0.680000	0.903962
0.681000	0.932306
0.682000	0.989961
0.683000	1.074028
0.684000	1.237008
0.685000	1.495649
0.686000	1.834171
0.687000	2.180101
0.688000	2.398481
0.689000	2.472885
0.690000	2.493499
0.691000	2.493821
0.692000	2.491244
0.693000	2.412975
0.694000	2.019053
0.695000	1.629641
0.696000	1.421890
0.697000	1.345231
0.698000	1.304003
0.699000	1.324939
0.700000	1.425111
0.701000	1.509177
0.702000	1.525926
0.703000	1.606772
0.704000	1.743340
0.705000	1.868957
0.706000	1.829984
0.707000	1.651221
0.708000	1.544930
0.709000	1.551050
0.710000	1.599042
0.711000	1.629319
0.712000	1.565544
0.713000	1.506601
0.714000	1.471492
0.715000	1.513687
0.716000	1.448302
0.717000	1.375508
0.718000	1.328805
0.719000	1.342655
0.720000	1.285322
0.721000	1.193203
0.722000	1.171300
0.723000	1.177742
0.724000	1.149398
0.725000	1.040852
0.726000	1.024103
0.727000	1.117511
0.728000	1.170978
0.729000	1.093676
0.730000	1.116866
0.731000	1.239906
0.732000	1.390647
0.733000	1.558780
0.734000	1.731101
0.735000	1.938530
0.736000	2.152723
0.737000	2.285748
0.738000	2.333740
0.739000	2.367238
0.740000	2.384309
0.741000	2.377545
0.742000	2.350489
0.743000	2.243553
0.744000	1.953346
0.745000	1.760733
0.746000	1.661528
0.747000	1.578750
0.748000	1.465695
0.749000	1.407073
0.750000	1.308190
0.751000	1.179675
0.752000	1.205764
0.753000	1.356827
0.754000	1.537844
0.755000	1.687940
0.756000	1.693738
0.757000	1.656375
0.758000	1.521739
0.759000	1.509822
0.760000	1.579716
0.761000	1.660562
0.762000	1.704689
0.763000	1.719183
0.764000	1.766531
0.765000	1.751715
0.766000	1.707266
0.767000	1.693738
0.768000	1.646390
0.769000	1.572630
0.770000	1.578428
0.771000	1.603551
0.772000	1.486309
0.773000	1.239584
0.774000	0.949699
0.775000	0.878517
0.776000	0.913625
0.777000	0.983197
0.778000	1.056957
0.779000	1.209630
0.780000	1.435740
0.781000	1.610637
0.782000	1.710486
0.783000	1.833849
0.784000	1.995540
0.785000	2.098933
0.786000	2.113427
0.787000	2.194273
0.788000	2.203614
0.789000	2.207157
0.790000	2.103120
0.791000	2.032581
0.792000	2.017121
0.793000	1.910507
0.794000	1.564900
0.795000	1.222191
0.796000	1.062432
0.797000	1.023459
0.798000	1.087234
0.799000	1.229277
0.800000	1.375508
0.801000	1.495649
0.802000	1.652832
0.803000	1.785212
0.804000	1.899878
0.805000	2.016799
0.806000	2.082184
0.807000	1.956889
0.808000	1.791010
0.809000	1.621588
0.810000	1.361336
0.811000	1.106559
0.812000	0.995437
0.813000	1.000912
0.814000	1.065009
0.815000	1.199645
0.816000	1.388714
0.817000	1.600008
0.818000	1.911151
0.819000	2.205546
0.820000	2.208445
0.821000	2.059637
0.822000	2.025495
0.823000	2.134041
0.824000	2.121801
0.825000	1.888283
0.826000	1.593888
0.827000	1.377763
0.828000	1.276947
0.829000	1.282101
0.830000	1.367778
0.831000	1.463118
0.832000	1.609349
0.833000	1.837392
0.834000	2.003915
0.835000	2.076708
0.836000	2.024529
0.837000	1.920814
0.838000	1.788433
0.839000	1.467627
0.840000	1.141346
0.841000	1.006066
0.842000	1.028935
0.843000	1.103338
0.844000	1.160671
0.845000	1.243449
0.846000	1.383883
0.847000	1.597109
0.848000	1.789722
0.849000	1.808081
0.850000	1.702434
0.851000	1.677955
0.852000	1.666360
0.853000	1.578428
0.854000	1.404819
0.855000	1.241195
0.856000	1.179675
0.857000	1.064365
0.858000	1.063077
0.859000	1.036665
0.860000	1.103338
0.861000	1.288865
0.862000	1.450878
0.863000	1.552660
0.864000	1.692127
0.865000	1.745273
0.866000	1.777804
0.867000	1.805182
0.868000	1.900522
0.869000	2.006492
0.870000	2.151434
0.871000	2.206190
0.872000	2.143382
0.873000	2.081218
0.874000	2.026783
0.875000	1.926290
0.876000	1.719505
0.877000	1.680532
0.878000	1.691161
0.879000	1.694382
0.880000	1.664105
0.881000	1.635116
0.882000	1.605162
0.883000	1.503058
0.884000	1.465695
0.885000	1.417380
0.886000	1.056635
0.887000	0.961617
0.888000	1.037309
0.889000	1.195457
0.890000	1.319142
0.891000	1.485342
0.892000	1.697281
0.893000	1.942395
0.894000	2.018409
0.895000	1.923713
0.896000	1.735610
0.897000	1.675700
0.898000	1.732067
0.899000	1.767819
0.900000	1.656697
0.901000	1.392257
0.902000	1.305614
0.903000	1.280812
0.904000	1.204798
0.905000	1.081758
0.906000	1.092709
0.907000	1.171945
0.908000	1.293052
0.909000	1.476968
0.910000	1.733355
0.911000	1.985555
0.912000	2.206512
0.913000	2.312482
0.914000	2.217786
0.915000	2.190730
0.916000	2.212310
0.917000	2.217464
0.918000	2.131142
0.919000	1.952058
0.920000	1.850598
0.921000	1.797130
0.922000	1.639948
0.923000	1.304647
0.924000	1.031189
0.925000	0.905573
0.926000	0.782855
0.927000	0.717147
0.928000	0.719724
0.929000	0.797027
0.930000	0.994471
0.931000	1.340400
0.932000	1.790044
0.933000	2.147569
0.934000	2.332129
0.935000	2.319246
0.936000	2.191374
0.937000	1.950125
0.938000	1.867669
0.939000	1.931121
0.940000	2.013256
0.941000	2.055450
0.942000	1.910829
0.943000	1.734321
0.944000	1.630285
0.945000	1.593244
0.946000	1.455388
0.947000	1.277269
0.948000	1.193203
0.949000	1.250536
0.950000	1.440893
0.951000	1.640914
0.952000	1.834493
0.953000	1.923391
0.954000	1.900844
0.955000	1.855429
0.956000	1.856073
0.957000	1.788755
0.958000	1.710486
0.959000	1.700179
0.960000	1.496294
0.961000	1.275015
0.962000	1.211240
0.963000	1.182896
0.964000	1.109458
0.965000	1.084657
0.966000	1.116544
0.967000	1.160349
0.968000	1.209630
0.969000	1.270183
0.970000	1.408040
0.971000	1.672157
0.972000	2.003593
0.973000	2.187831
0.974000	2.236467
0.975000	2.271254
0.976000	2.303463
0.977000	2.272542
0.978000	1.938852
0.979000	1.483732
0.980000	1.225090
0.981000	1.057601
0.982000	0.964194
0.983000	0.965482
0.984000	1.081436
0.985000	1.387104
0.986000	1.832882
0.987000	2.268999
0.988000	2.450016
0.989000	2.465799
0.990000	2.431013
0.991000	2.360474
0.992000	2.167217
0.993000	1.858328
0.994000	1.475680
0.995000	1.141990
0.996000	0.964838
0.997000	0.922644
0.998000	0.976433
0.999000	1.142956
1.000000	1.442182
1.001000	1.773617
1.002000	2.040956
1.003000	2.243231
1.004000	2.244842
1.005000	2.149502
1.006000	1.938530
1.007000	1.715640
1.008000	1.586802
1.009000	1.563611
1.010000	1.573596
1.011000	1.598720
1.012000	1.614824
1.013000	1.709520
1.014000	1.787467
1.015000	1.804538
1.016000	1.703723
1.017000	1.564900
1.018000	1.357793
1.019000	1.191270
1.020000	1.172589
1.021000	1.161960
1.022000	1.217360
1.023000	1.312378
1.024000	1.483088
1.025000	1.604839
1.026000	1.522383
1.027000	1.616757
1.028000	1.614502
1.029000	1.457320
1.030000	1.308190
1.031000	1.269539
1.032000	1.298850
1.033000	1.377763
1.034000	1.512720
1.035000	1.719827
1.036000	1.972027
1.037000	2.144026
1.038000	2.126311
1.039000	2.077997
1.040000	2.044499
1.041000	1.834171
1.042000	1.541709
1.043000	1.247637
1.044000	1.100118
1.045000	1.046650
1.046000	1.106559
1.047000	1.111713
1.048000	1.142956
1.049000	1.313666
1.050000	1.689228
1.051000	1.801639
1.052000	1.593888
1.053000	1.238940
1.054000	0.988673
1.055000	0.933595
1.056000	0.965482
1.057000	1.058567
1.058000	1.324295
1.059000	1.738831
1.060000	2.051907
1.061000	2.109562
1.062000	2.097000
1.063000	1.990387
1.064000	1.923069
1.065000	1.849309
1.066000	1.784890
1.067000	1.683431
1.068000	1.574563
1.069000	1.502736
1.070000	1.485020
1.071000	1.454743
1.072000	1.474391
1.073000	1.416414
1.074000	1.400954
1.075000	1.446047
1.076000	1.476002
1.077000	1.292086
1.078000	1.150686
1.079000	1.078215
1.080000	1.149720
1.081000	1.343621
1.082000	1.562323
1.083000	1.580038
1.084000	1.531080
1.085000	1.694704
1.086000	1.936919
1.087000	1.998439
1.088000	1.860261
1.089000	1.648644
1.090000	1.527859
1.091000	1.456998
1.092000	1.337823
1.093000	1.392257
1.094000	1.689872
1.095000	2.091847
1.096000	2.276085
1.097000	2.254505
1.098000	1.898268
1.099000	1.454421
1.100000	1.160027
1.101000	1.040530
1.102000	0.953887
1.103000	1.031189
1.104000	1.136514
1.105000	1.069841
1.106000	0.981265
1.107000	0.942935
1.108000	1.053092
1.109000	1.158094
1.110000	1.296917
1.111000	1.694382
1.112000	2.165606
1.113000	2.397837
1.114000	2.416841
1.115000	2.356287
1.116000	2.147891
1.117000	1.782958
1.118000	1.331059
1.119000	1.057923
1.120000	0.998014
1.121000	1.121054
1.122000	1.243772
1.123000	1.154874
1.124000	1.119765
1.125000	1.151008
1.126000	1.201255
1.127000	1.263097
1.128000	1.320430
1.129000	1.489530
1.130000	1.855107
1.131000	2.177846
1.132000	2.335673
1.133000	2.339538
1.134000	2.149824
1.135000	2.157554
1.136000	2.362406
1.137000	2.409754
1.138000	2.425215
1.139000	2.406856
1.140000	2.355642
1.141000	1.965263
1.142000	1.425433
1.143000	1.073062
1.144000	0.911370
1.145000	0.756765
1.146000	0.671088
1.147000	0.667545
1.148000	0.678174
1.149000	0.802180
1.150000	0.911370
1.151000	1.043751
1.152000	1.244738
1.153000	1.403853
1.154000	1.547829
1.155000	1.790688
1.156000	2.114071
1.157000	2.349523
1.158000	2.408466
1.159000	2.405245
1.160000	2.394938
1.161000	2.430046
1.162000	2.372069
1.163000	2.212310
1.164000	1.954956
1.165000	1.759445
1.166000	1.667326
1.167000	1.582615
1.168000	1.402564
1.169000	1.363913
1.170000	1.237330
1.171000	1.046328
1.172000	0.948733
1.173000	0.857258
1.174000	0.832457
1.175000	0.883992
1.176000	0.929408
1.177000	1.089166
1.178000	1.427688
1.179000	1.759445
1.180000	2.088626
1.181000	2.397515
1.182000	2.467087
1.183000	2.487701
1.184000	2.473851
1.185000	2.371747
1.186000	2.020664
1.187000	1.507889
1.188000	1.196102
1.189000	0.991894
1.190000	0.870142
1.191000	0.915557
1.192000	0.976111
1.193000	1.118155
1.194000	1.310445
1.195000	1.430264
1.196000	1.502736
1.197000	1.604195
1.198000	1.742696
1.199000	1.731423
1.200000	1.484698
1.201000	1.344587
1.202000	1.203832
1.203000	1.129750
1.204000	1.408362
1.205000	1.730456
1.206000	2.075420
1.207000	2.195883
1.208000	2.019375
1.209000	1.941750
1.210000	2.018409
1.211000	1.865092
1.212000	1.699213
1.213000	1.561357
1.214000	1.514331
1.215000	1.455066
1.216000	1.495005
1.217000	1.835781
1.218000	2.125022
1.219000	2.183322
1.220000	2.281561
1.221000	2.379477
1.222000	2.424571
1.223000	2.335995
1.224000	1.976215
1.225000	1.436062
1.226000	0.981587
1.227000	0.825693
1.228000	0.837289
1.229000	0.892045
1.230000	0.986096
1.231000	1.017983
1.232000	1.099473
1.233000	1.237652
1.234000	1.317209
1.235000	1.178064
1.236000	1.061466
1.237000	1.019594
1.238000	1.228311
1.239000	1.729812
1.240000	2.236467
1.241000	2.492211
1.242000	2.749565
1.243000	2.767280
1.244000	2.764703
1.245000	2.764059
1.246000	2.345980
1.247000	1.066942
1.248000	0.660459
1.249000	0.660781
1.250000	0.661103
1.251000	0.663680
1.252000	0.664324
1.253000	0.679462
1.254000	0.816030
1.255000	0.985452
1.256000	1.208985
1.257000	1.432519
1.258000	1.639304
1.259000	1.813879
1.260000	1.981368
1.261000	1.866380
1.262000	1.930155
1.263000	2.048364
1.264000	2.057705
1.265000	2.035158
1.266000	1.940784
1.267000	1.828695
1.268000	1.740763
1.269000	1.744629
1.270000	1.808081
1.271000	1.789078
1.272000	1.576173
1.273000	1.530758
1.274000	1.512398
1.275000	1.495327
1.276000	1.444759
1.277000	1.370033
1.278000	1.340722
1.279000	1.486953
1.280000	2.038379
1.281000	2.462256
1.282000	2.501874
1.283000	2.765992
1.284000	2.766958
1.285000	2.639730
1.286000	2.386564
1.287000	1.612892
1.288000	1.029579
1.289000	0.806368
1.290000	0.675919
1.291000	0.705552
1.292000	0.779956
1.293000	0.883348
1.294000	0.973857
1.295000	1.045684
1.296000	1.072417
1.297000	0.944224
1.298000	0.960973
1.299000	1.088844
1.300000	1.219937
1.301000	1.480511
1.302000	1.681498
1.303000	1.714674
1.304000	1.785857
1.305000	1.796486
1.306000	1.618045
1.307000	1.532046
1.308000	1.474391
1.309000	1.428976
1.310000	1.607094
1.311000	1.815167
1.312000	1.931443
1.313000	1.917593
1.314000	1.818066
1.315000	1.625454
1.316000	1.405141
1.317000	1.189016
1.318000	1.033766
1.319000	0.951954
1.320000	1.000590
1.321000	1.167113
1.322000	1.482444
1.323000	1.805827
1.324000	1.958499
1.325000	1.896657
1.326000	1.852852
1.327000	1.919848
1.328000	1.882485
1.329000	2.008746
1.330000	2.061570
1.331000	2.138873
1.332000	2.261913
1.333000	2.239366
1.334000	1.995862
1.335000	1.542031
1.336000	1.246026
1.337000	1.108170
1.338000	1.102372
1.339000	1.257944
1.340000	1.485987
1.341000	1.855107
1.342000	1.986522
1.343000	1.923069
1.344000	1.667326
1.345000	1.367778
1.346000	1.130716
1.347000	0.952920
1.348000	0.814098
1.349000	0.765784
1.350000	0.813132
1.351000	0.909116
1.352000	1.107848
1.353000	1.373898
1.354000	1.665715
1.355000	1.850920
1.356000	1.881197
1.357000	1.758479
1.358000	1.639304
1.359000	1.530114
1.360000	1.352639
1.361000	1.204798
1.362000	1.261809
1.363000	1.418991
1.364000	1.705655
1.365000	1.888927
1.366000	1.954956
1.367000	1.835459
1.368000	1.722082
1.369000	1.553626
1.370000	1.412549
1.371000	1.409650
1.372000	1.511110
1.373000	1.550083
1.374000	1.533979
1.375000	1.508855
1.376000	1.616757
1.377000	1.780059
1.378000	1.775228
1.379000	1.734321
1.380000	1.611603
1.381000	1.750748
1.382000	2.113749
1.383000	2.124700
1.384000	1.807437
1.385000	1.508211
1.386000	1.294340
1.387000	1.196102
1.388000	1.270505
1.389000	1.269217
1.390000	1.234431
1.391000	1.312056
1.392000	1.570697
1.393000	1.915017
1.394000	2.198782
1.395000	2.356931
1.396000	2.338249
1.397000	2.189119
1.398000	1.963975
1.399000	1.686651
1.400000	1.374220
1.401000	1.237974
1.402000	1.299172
1.403000	1.378407
1.404000	1.321074
1.405000	1.284355
1.406000	1.288865
1.407000	1.385815
1.408000	1.634472
1.409000	1.814845
1.410000	1.935953
1.411000	1.905032
1.412000	2.004237
1.413000	2.133397
1.414000	2.121157
1.415000	1.984911
1.416000	1.738509
1.417000	1.531080
1.418000	1.437350
1.419000	1.468271
1.420000	1.287254
1.421000	1.172589
1.422000	1.057923
1.423000	1.059856
1.424000	1.160993
1.425000	1.315599
1.426000	1.386782
1.427000	1.380662
1.428000	1.456354
1.429000	1.547507
1.430000	1.674412
1.431000	1.795519
1.432000	1.728524
1.433000	1.691483
1.434000	2.104408
1.435000	2.440998
1.436000	2.432623
1.437000	2.403957
1.438000	2.364983
1.439000	2.279306
1.440000	2.145314
1.441000	1.921459
1.442000	1.686329
1.443000	1.577784
1.444000	1.381628
1.445000	0.999946
1.446000	0.825049
1.447000	0.807012
1.448000	0.810877
1.449000	0.989317
1.450000	1.200611
1.451000	1.322685
1.452000	1.541387
1.453000	1.699535
1.454000	1.620300
1.455000	1.437350
1.456000	1.297561
1.457000	1.249569
1.458000	1.293374
1.459000	1.431875
1.460000	1.652832
1.461000	1.729490
1.462000	1.778126
1.463000	1.777160
1.464000	1.877976
1.465000	1.938852
1.466000	1.865092
1.467000	1.732389
1.468000	1.880552
1.469000	2.253538
1.470000	2.409754
1.471000	2.488668
1.472000	2.488668
1.473000	2.347912
1.474000	1.844800
1.475000	1.307868
1.476000	0.884959
1.477000	0.826659
1.478000	0.912014
1.479000	1.092709
1.480000	1.293052
1.481000	1.349741
1.482000	1.319142
1.483000	1.268251
1.484000	1.265352
1.485000	1.334602
1.486000	1.348774
1.487000	1.419635
1.488000	1.530436
1.489000	1.496294
1.490000	1.472781
1.491000	1.641236
1.492000	1.978469
1.493000	2.237111
1.494000	2.306362
1.495000	2.148857
1.496000	2.006492
1.497000	1.719505
1.498000	1.467949
1.499000	1.547185
1.500000	1.801639
1.501000	2.043210
1.502000	2.191052
1.503000	2.280916
1.504000	2.209733
1.505000	2.129854
1.506000	1.927256
1.507000	1.635116
1.508000	1.337823
1.509000	1.258588
1.510000	1.150364
1.511000	1.162926
1.512000	1.115900
1.513000	1.020882
1.514000	1.061144
1.515000	1.197068
1.516000	1.345553
1.517000	1.383238
1.518000	1.385815
1.519000	1.186439
1.520000	1.057923
1.521000	0.921355
1.522000	0.860801
1.523000	0.960973
1.524000	1.326228
1.525000	2.024851
1.526000	2.424893
1.527000	2.486091
1.528000	2.467087
1.529000	2.382698
1.530000	1.963009
1.531000	1.609993
1.532000	1.619012
1.533000	1.731745
1.534000	1.694060
1.535000	1.720149
1.536000	1.906642
1.537000	1.998117
1.538000	1.784568
1.539000	1.459575
1.540000	1.341044
1.541000	1.265674
1.542000	1.227989
1.543000	1.251502
1.544000	1.561357
1.545000	1.838680
1.546000	1.977503
1.547000	1.996829
1.548000	1.855107
1.549000	1.600652
1.550000	1.453455
1.551000	1.374542
1.552000	1.297239
1.553000	1.233787
1.554000	1.200611
1.555000	1.306258
1.556000	1.735932
1.557000	2.106663
1.558000	2.090236
1.559000	1.991675
1.560000	1.840613
1.561000	1.612892
1.562000	1.450878
1.563000	1.359726
1.564000	1.272438
1.565000	1.192559
1.566000	1.148110
1.567000	1.144244
1.568000	1.383561
1.569000	1.765887
1.570000	1.984911
1.571000	1.916949
1.572000	1.657019
1.573000	1.346520
1.574000	1.150042
1.575000	1.214461
1.576000	1.411261
1.577000	1.690195
1.578000	1.923069
1.579000	2.008424
1.580000	1.871534
1.581000	1.750748
1.582000	1.608383
1.583000	1.500803
1.584000	1.459575
1.585000	1.401598
1.586000	1.531724
1.587000	1.685685
1.588000	1.962042
1.589000	2.158520
1.590000	2.092491
1.591000	1.958499
1.592000	1.757834
1.593000	1.585836
1.594000	1.522383
1.595000	1.402886
1.596000	1.282101
1.597000	1.172267
1.598000	1.111069
1.599000	1.293374
1.600000	1.574240
1.601000	1.625454
1.602000	1.540743
1.603000	1.329127
1.604000	1.102372
1.605000	0.911370
1.606000	0.792840
1.607000	1.026358
1.608000	1.631251
1.609000	2.201681
1.610000	2.335673
1.611000	2.450660
1.612000	2.493177
1.613000	2.455814
1.614000	2.173659
1.615000	1.629641
1.616000	1.317209
1.617000	1.121054
1.618000	1.100762
1.619000	1.198678
1.620000	1.494683
1.621000	1.900522
1.622000	2.100543
1.623000	1.974282
1.624000	1.699535
1.625000	1.437028
1.626000	1.258266
1.627000	1.257944
1.628000	1.480511
1.629000	1.643169
1.630000	1.991031
1.631000	2.282527
1.632000	2.328586
1.633000	2.268677
1.634000	2.240977
1.635000	1.914050
1.636000	1.494683
1.637000	1.192559
1.638000	0.997369
1.639000	1.074028
1.640000	1.233465
1.641000	1.327516
1.642000	1.227345
1.643000	1.137158
1.644000	1.118477
1.645000	1.215749
1.646000	1.276625
1.647000	1.299172
1.648000	1.356827
1.649000	1.261487
1.650000	1.148110
1.651000	1.154551
1.652000	1.041496
1.653000	0.859191
1.654000	1.105915
1.655000	1.858650
1.656000	2.408144
1.657000	2.496720
1.658000	2.761805
1.659000	2.764381
1.660000	2.565326
1.661000	2.089914
1.662000	1.255045
1.663000	1.028290
1.664000	0.919745
1.665000	0.876584
1.666000	0.924576
1.667000	1.059856
1.668000	1.240229
1.669000	1.308513
1.670000	1.399987
1.671000	1.340078
1.672000	1.242483
1.673000	1.236041
1.674000	1.192236
1.675000	1.260198
1.676000	1.583581
1.677000	1.704045
1.678000	1.489208
1.679000	1.391935
1.680000	1.280168
1.681000	1.350385
1.682000	1.764598
1.683000	2.183966
1.684000	2.180423
1.685000	1.989743
1.686000	1.659918
1.687000	1.443792
1.688000	1.371643
1.689000	1.196424
1.690000	1.135548
1.691000	1.136514
1.692000	1.221869
1.693000	1.264386
1.694000	1.384527
1.695000	1.623199
1.696000	1.882807
1.697000	2.028394
1.698000	1.936919
1.699000	1.899878
1.700000	1.873788
1.701000	1.800029
1.702000	1.811624
1.703000	1.891504
1.704000	1.953024
1.705000	1.903099
1.706000	1.899556
1.707000	1.867991
1.708000	1.572308
1.709000	1.374220
1.710000	1.269861
1.711000	1.418347
1.712000	1.584870
1.713000	1.705333
1.714000	1.760411
1.715000	1.827729
1.716000	1.974282
1.717000	1.908253
1.718000	1.682464
1.719000	1.401598
1.720000	1.231210
1.721000	1.246993
1.722000	1.355860
1.723000	1.640592
1.724000	1.936919
1.725000	2.126633
1.726000	2.157232
1.727000	1.969773
1.728000	1.635438
1.729000	1.347486
1.730000	1.130394
1.731000	1.013474
1.732000	1.000912
1.733000	1.123308
1.734000	1.330093
1.735000	1.500803
1.736000	1.564900
1.737000	1.555559
1.738000	1.532690
1.739000	1.544608
1.740000	1.539132
1.741000	1.625131
1.742000	1.814845
1.743000	2.133075
1.744000	2.325365
1.745000	2.308939
1.746000	2.010679
1.747000	1.604839
1.748000	1.317853
1.749000	1.175810
1.750000	1.017661
1.751000	1.008965
1.752000	1.146177
1.753000	1.246348
1.754000	1.286610
1.755000	1.306580
1.756000	1.277914
1.757000	1.191914
1.758000	1.100762
1.759000	1.094320
1.760000	1.170978
1.761000	1.313988
1.762000	1.433807
1.763000	1.618690
1.764000	1.688906
1.765000	1.703078
1.766000	1.661850
1.767000	1.717250
1.768000	1.811624
1.769000	1.861227
1.770000	1.854785
1.771000	1.767497
1.772000	1.608705
1.773000	1.529147
1.774000	1.387104
1.775000	1.257300
1.776000	1.297883
1.777000	1.301749
1.778000	1.308513
1.779000	1.325584
1.780000	1.265996
1.781000	1.212206
1.782000	1.178064
1.783000	1.166791
1.784000	1.227989
1.785000	1.319786
1.786000	1.417058
1.787000	1.521739
1.788000	1.612570
1.789000	1.609671
1.790000	1.616113
1.791000	1.640914
1.792000	1.672157
1.793000	1.607094
1.794000	1.540743
1.795000	1.445081
1.796000	1.334602
1.797000	1.268573
1.798000	1.289509
1.799000	1.470848
1.800000	1.626742
1.801000	1.748494
1.802000	1.801317
1.803000	1.817100
1.804000	1.778771
1.805000	1.651221
1.806000	1.431875
1.807000	1.272760
1.808000	1.238296
1.809000	1.267607
1.810000	1.350063
1.811000	1.563289
1.812000	1.860261
1.813000	2.086693
1.814000	2.145314
1.815000	1.936919
1.816000	1.623521
1.817000	1.408684
1.818000	1.287899
1.819000	1.208663
1.820000	1.214783
1.821000	1.311089
1.822000	1.395156
1.823000	1.450234
1.824000	1.438961
1.825000	1.416092
1.826000	1.432197
1.827000	1.437672
1.828000	1.457964
1.829000	1.503058
1.830000	1.487919
1.831000	1.524316
1.832000	1.539776
1.833000	1.536555
1.834000	1.514975
1.835000	1.503380
1.836000	1.494361
1.837000	1.501125
1.838000	1.439927
1.839000	1.407718
1.840000	1.390647
1.841000	1.377763
1.842000	1.375508
1.843000	1.418025
1.844000	1.506601
1.845000	1.574240
1.846000	1.548473
1.847000	1.565866
1.848000	1.558780
1.849000	1.503058
1.850000	1.448302
1.851000	1.459253
1.852000	1.519807
1.853000	1.556847
1.854000	1.570053
1.855000	1.583259
1.856000	1.534301
1.857000	1.517230
1.858000	1.567799
1.859000	1.595821
1.860000	1.660562
1.861000	1.702434
1.862000	1.697281
1.863000	1.656053
1.864000	1.609993
1.865000	1.571020
1.866000	1.509177
1.867000	1.447013
1.868000	1.387426
1.869000	1.423500
1.870000	1.482444
1.871000	1.445725
1.872000	1.414482
1.873000	1.383238
1.874000	1.437350
1.875000	1.563933
1.876000	1.663461
1.877000	1.800351
1.878000	1.921781
1.879000	1.975893
1.880000	1.927900
1.881000	1.762988
1.882000	1.589057
1.883000	1.485020
1.884000	1.328160
1.885000	1.237330
1.886000	1.254401
1.887000	1.228955
1.888000	1.276303
1.889000	1.349419
1.890000	1.398377
1.891000	1.441215
1.892000	1.501769
1.893000	1.548795
1.894000	1.578428
1.895000	1.566510
1.896000	1.584225
1.897000	1.610637
1.898000	1.636405
1.899000	1.647678
1.900000	1.672801
1.901000	1.719505
1.902000	1.768786
1.903000	1.752681
1.904000	1.669258
1.905000	1.581004
1.906000	1.546218
1.907000	1.522383
1.908000	1.489208
1.909000	1.458609
1.910000	1.465373
1.911000	1.499515
1.912000	1.552982
1.913000	1.554271
1.914000	1.542353
1.915000	1.550406
1.916000	1.569409
1.917000	1.606128
1.918000	1.622555
1.919000	1.670547
1.920000	1.701146
1.921000	1.743340
1.922000	1.687618
1.923000	1.617401
1.924000	1.577461
1.925000	1.539454
1.926000	1.532690
1.927000	1.577461
1.928000	1.640914
1.929000	1.662172
1.930000	1.674412
1.931000	1.677955
1.932000	1.672157
1.933000	1.539454
1.934000	1.462152
1.935000	1.352317
1.936000	1.348774
1.937000	1.380340
1.938000	1.417380
1.939000	1.481477
1.940000	1.559102
1.941000	1.646712
1.942000	1.700179
1.943000	1.753325
1.944000	1.782636
1.945000	1.823864
1.946000	1.809047
1.947000	1.652832
1.948000	1.497904
1.949000	1.409328
1.950000	1.435096
1.951000	1.434451
1.952000	1.385815
1.953000	1.354250
1.954000	1.375508
1.955000	1.413515
1.956000	1.436062
1.957000	1.468593
1.958000	1.521095
1.959000	1.508211
1.960000	1.478256
1.961000	1.529469
1.962000	1.611603
1.963000	1.639948
1.964000	1.628674
1.965000	1.586158
1.966000	1.609349
1.967000	1.661528
1.968000	1.682464
1.969000	1.663461
1.970000	1.645745
1.971000	1.612892
1.972000	1.549439
1.973000	1.480833
1.974000	1.453777
1.975000	1.466983
1.976000	1.545574
1.977000	1.612892
1.978000	1.630607
1.979000	1.679243
1.980000	1.771362
1.981000	1.833849
1.982000	1.863159
1.983000	1.842867
1.984000	1.755580
1.985000	1.640270
1.986000	1.480189
1.987000	1.353928
1.988000	1.297883
1.989000	1.317853
1.990000	1.420601
1.991000	1.482121
1.992000	1.501447
1.993000	1.519484
1.994000	1.526248
1.995000	1.520129
1.996000	1.486631
1.997000	1.370033
1.998000	1.314954
1.999000	1.350385
2.000000	1.442182
2.001000	1.526248
2.002000	1.576173
2.003000	1.598720
2.004000	1.492106
2.005000	1.419635
2.006000	1.332992
2.007000	1.219615
2.008000	1.195135
2.009000	1.257944
2.010000	1.333314
2.011000	1.393223
2.012000	1.402242
2.013000	1.385815
2.014000	1.385171
2.015000	1.448946
2.016000	1.546862
2.017000	1.593244
2.018000	1.599042
2.019000	1.683108
2.020000	1.776194
2.021000	1.858972
2.022000	1.879264
2.023000	1.788755
2.024000	1.671513
2.025000	1.610315
2.026000	1.585192
2.027000	1.604839
2.028000	1.597431
2.029000	1.542675
2.030000	1.520773
2.031000	1.500803
2.032000	1.511110
2.033000	1.496616
2.034000	1.483410
2.035000	1.469882
2.036000	1.473425
2.037000	1.481155
2.038000	1.543964
2.039000	1.630929
2.040000	1.721760
2.041000	1.796808
2.042000	1.810658
2.043000	1.835781
2.044000	1.868957
2.045000	1.852208
2.046000	1.766531
2.047000	1.729490
2.048000	1.672157
2.049000	1.612892
2.050000	1.572952
2.051000	1.556847
2.052000	1.465373
2.053000	1.437995
2.054000	1.472459
2.055000	1.557492
2.056000	1.628674
2.057000	1.698891
2.058000	1.680532
2.059000	1.597431
2.060000	1.547829
2.061000	1.533334
2.062000	1.536233
2.063000	1.540098
2.064000	1.607738
2.065000	1.696959
2.066000	1.769752
2.067000	1.827407
2.068000	1.896657
2.069000	1.899234
2.070000	1.864448
2.071000	1.771362
2.072000	1.554593
2.073000	1.356827
2.074000	1.237974
2.075000	1.180319
2.076000	1.132971
2.077000	1.149720
2.078000	1.214139
2.079000	1.269217
2.080000	1.329449
2.081000	1.368422
2.082000	1.407718
2.083000	1.487597
2.084000	1.588413
2.085000	1.626742
2.086000	1.648322
2.087000	1.676667
2.088000	1.714674
2.089000	1.796808
2.090000	1.952058
2.091000	2.084761
2.092000	2.173981
2.093000	2.220363
2.094000	2.227127
2.095000	2.075098
2.096000	1.867991
2.097000	1.697925
2.098000	1.464406
2.099000	1.285966
2.100000	1.232498
2.101000	1.205442
2.102000	1.196746
2.103000	1.177420
2.104000	1.129106
2.105000	1.162282
2.106000	1.248603
2.107000	1.346198
2.108000	1.399665
2.109000	1.461185
2.110000	1.531724
2.111000	1.571342
2.112000	1.585514
2.113000	1.536233
2.114000	1.505956
2.115000	1.577461
2.116000	1.681498
2.117000	1.751393
2.118000	1.791332
2.119000	1.816778
2.120000	1.753003
2.121000	1.651543
2.122000	1.538488
2.123000	1.392257
2.124000	1.292086
2.125000	1.256655
2.126000	1.270828
2.127000	1.335568
2.128000	1.400632
2.129000	1.434774
2.130000	1.412227
2.131000	1.454421
2.132000	1.514653
2.133000	1.564900
2.134000	1.658307
2.135000	1.724981
2.136000	1.686329
2.137000	1.651221
2.138000	1.610315
2.139000	1.541065
2.140000	1.467305
2.141000	1.354250
2.142000	1.237652
2.143000	1.198356
2.144000	1.175165
2.145000	1.182252
2.146000	1.169046
2.147000	1.225412
2.148000	1.293696
2.149000	1.335568
2.150000	1.354894
2.151000	1.316565
2.152000	1.249569
2.153000	1.199645
2.154000	1.189016
2.155000	1.142634
2.156000	1.121376
2.157000	1.146821
2.158000	1.207697
2.159000	1.302393
2.160000	1.410616
2.161000	1.510144
2.162000	1.575529
2.163000	1.645745
2.164000	1.686007
2.165000	1.683431
2.166000	1.631251
2.167000	1.628997
2.168000	1.638659
2.169000	1.581327
2.170000	1.585836
2.171000	1.601296
2.172000	1.604839
2.173000	1.580360
2.174000	1.571664
2.175000	1.574885
2.176000	1.541065
2.177000	1.539454
2.178000	1.590989
2.179000	1.692771
2.180000	1.810014
2.181000	1.892148
2.182000	1.947548
2.183000	1.955923
2.184000	1.932732
2.185000	1.822898
2.186000	1.706621
2.187000	1.584870
2.188000	1.443470
2.189000	1.334280
2.190000	1.375508
2.191000	1.438317
2.192000	1.439927
2.193000	1.483410
2.194000	1.546862
2.195000	1.576817
2.196000	1.550083
2.197000	1.514653
2.198000	1.538810
2.199000	1.594855
2.200000	1.684397
2.201000	1.798096
2.202000	1.954956
2.203000	2.135329
2.204000	2.238722
2.205000	2.272864
2.206000	2.245164
2.207000	2.108273
2.208000	1.876687
2.209000	1.724337
2.210000	1.605806
2.211000	1.536233
2.212000	1.459253
2.213000	1.455388
2.214000	1.498548
2.215000	1.483088
2.216000	1.504024
2.217000	1.532690
2.218000	1.518840
2.219000	1.453133
2.220000	1.448946
2.221000	1.484698
2.222000	1.544608
2.223000	1.587768
2.224000	1.700502
2.225000	1.824830
2.226000	1.977503
2.227000	2.061248
2.228000	2.116326
2.229000	2.137584
2.230000	2.039345
2.231000	1.897623
2.232000	1.759767
2.233000	1.616757
2.234000	1.549439
2.235000	1.506279
2.236000	1.514009
2.237000	1.535589
2.238000	1.577139
2.239000	1.596143
2.240000	1.566188
2.241000	1.567477
2.242000	1.546540
2.243000	1.520773
2.244000	1.552016
2.245000	1.590023
2.246000	1.705655
2.247000	1.797130
2.248000	1.815489
2.249000	1.790688
2.250000	1.663139
2.251000	1.617079
2.252000	1.659273
2.253000	1.720149
2.254000	1.728846
2.255000	1.808081
2.256000	1.882807
2.257000	1.892148
2.258000	1.849631
2.259000	1.810014
2.260000	1.812913
2.261000	1.753003
2.262000	1.692449
2.263000	1.548473
2.264000	1.462152
2.265000	1.481799
2.266000	1.485665
2.267000	1.516586
2.268000	1.583903
2.269000	1.713063
2.270000	1.839324
2.271000	1.866058
2.272000	1.846088
2.273000	1.800029
2.274000	1.781347
2.275000	1.684397
2.276000	1.590023
2.277000	1.566832
2.278000	1.560068
2.279000	1.569409
2.280000	1.573918
2.281000	1.589701
2.282000	1.637049
2.283000	1.683108
2.284000	1.700179
2.285000	1.695992
2.286000	1.649933
2.287000	1.624487
2.288000	1.605484
2.289000	1.618690
2.290000	1.617079
2.291000	1.583259
2.292000	1.523350
2.293000	1.450234
2.294000	1.375830
2.295000	1.312378
2.296000	1.267607
2.297000	1.303037
2.298000	1.349419
2.299000	1.424144
2.300000	1.553304
2.301000	1.693093
2.302000	1.771040
2.303000	1.808725
2.304000	1.805504
2.305000	1.743018
2.306000	1.617079
2.307000	1.478901
2.308000	1.343299
2.309000	1.277592
2.310000	1.210274
2.311000	1.210918
2.312000	1.336213
2.313000	1.480511
2.314000	1.641558
2.315000	1.755580
2.316000	1.806793
2.317000	1.826118
2.318000	1.801961
2.319000	1.767175
2.320000	1.714996
2.321000	1.649933
2.322000	1.485020
2.323000	1.331059
2.324000	1.280490
2.325000	1.300138
2.326000	1.351673
2.327000	1.405463
2.328000	1.500803
2.329000	1.583259
2.330000	1.688584
2.331000	1.824830
2.332000	1.947870
2.333000	1.967840
2.334000	1.871212
2.335000	1.762988
2.336000	1.652509
2.337000	1.576817
2.338000	1.589057
2.339000	1.578428
2.340000	1.498548
2.341000	1.454743
2.342000	1.415126
2.343000	1.421890
2.344000	1.480189
2.345000	1.522061
2.346000	1.487275
2.347000	1.408362
2.348000	1.398377
2.349000	1.449268
2.350000	1.455388
2.351000	1.445081
2.352000	1.404175
2.353000	1.392257
2.354000	1.452811
2.355000	1.484376
2.356000	1.486309
2.357000	1.521417
2.358000	1.581649
2.359000	1.613858
2.360000	1.594532
2.361000	1.575851
2.362000	1.503702
2.363000	1.407396
2.364000	1.379051
2.365000	1.419635
2.366000	1.481799
2.367000	1.574563
2.368000	1.628997
2.369000	1.673446
2.370000	1.686329
2.371000	1.669903
2.372000	1.633828
2.373000	1.590667
2.374000	1.585836
2.375000	1.631573
2.376000	1.638981
2.377000	1.608705
2.378000	1.637693
2.379000	1.649611
2.380000	1.591312
2.381000	1.512720
2.382000	1.444114
2.383000	1.467949
2.384000	1.616435
2.385000	1.706299
2.386000	1.650577
2.387000	1.573596
2.388000	1.558458
2.389000	1.587446
2.390000	1.584225
2.391000	1.540098
2.392000	1.501769
2.393000	1.494039
2.394000	1.480511
2.395000	1.473425
2.396000	1.515297
2.397000	1.587446
2.398000	1.664427
2.399000	1.732711
2.400000	1.736254
2.401000	1.698247
2.402000	1.745595
2.403000	1.874111
2.404000	1.992964
2.405000	2.012933
2.406000	1.891504
2.407000	1.761700
2.408000	1.625776
2.409000	1.545574
2.410000	1.559746
2.411000	1.604517
2.412000	1.678277
2.413000	1.749460
2.414000	1.735610
2.415000	1.619334
2.416000	1.550406
2.417000	1.525282
2.418000	1.575851
2.419000	1.551372
2.420000	1.492751
2.421000	1.493717
2.422000	1.474069
2.423000	1.466983
2.424000	1.440571
2.425000	1.458286
2.426000	1.486631
2.427000	1.554593
2.428000	1.653476
2.429000	1.739153
2.430000	1.785857
2.431000	1.822898
2.432000	1.833205
2.433000	1.742696
2.434000	1.659596
2.435000	1.572308
2.436000	1.467627
2.437000	1.427043
2.438000	1.428332
2.439000	1.486309
2.440000	1.467949
2.441000	1.419635
2.442000	1.383561
2.443000	1.408040
2.444000	1.425111
2.445000	1.470848
2.446000	1.516908
2.447000	1.582615
2.448000	1.675378
2.449000	1.764598
2.450000	1.750748
2.451000	1.639626
2.452000	1.563933
2.453000	1.532368
2.454000	1.521739
2.455000	1.522705
2.456000	1.544608
2.457000	1.604839
2.458000	1.656375
2.459000	1.703723
2.460000	1.735610
2.461000	1.736898
2.462000	1.702756
2.463000	1.658307
2.464000	1.664105
2.465000	1.685363
2.466000	1.751070
2.467000	1.771684
2.468000	1.773617
2.469000	1.762344
2.470000	1.767497
2.471000	1.712741
2.472000	1.674412
2.473000	1.628997
2.474000	1.591312
2.475000	1.564256
2.476000	1.535267
2.477000	1.510788
2.478000	1.479867
2.479000	1.460541
2.480000	1.463440
2.481000	1.505634
2.482000	1.518196
2.483000	1.519807
2.484000	1.543319
2.485000	1.586158
2.486000	1.554915
2.487000	1.533979
2.488000	1.536233
2.489000	1.535589
2.490000	1.517874
2.491000	1.488885
2.492000	1.520773
2.493000	1.629641
2.494000	1.724014
2.495000	1.856717
2.496000	1.966874
2.497000	1.924035
2.498000	1.871856
2.499000	1.855429
2.500000	1.790044
2.501000	1.765565
2.502000	1.746883
2.503000	1.714996
2.504000	1.660562
2.505000	1.555237
2.506000	1.449268
2.507000	1.402564
2.508000	1.444759
2.509000	1.457642
2.510000	1.447013
2.511000	1.440249
2.512000	1.400632
2.513000	1.373254
2.514000	1.375830
2.515000	1.381628
2.516000	1.358115
2.517000	1.341044
2.518000	1.316565
2.519000	1.340722
2.520000	1.389358
2.521000	1.437995
2.522000	1.447979
2.523000	1.432841
2.524000	1.424789
2.525000	1.415126
2.526000	1.428010
2.527000	1.431553
2.528000	1.423178
2.529000	1.414482
2.530000	1.418991
2.531000	1.423500
2.532000	1.449912
2.533000	1.491462
2.534000	1.531080
2.535000	1.588091
2.536000	1.594210
2.537000	1.614824
2.538000	1.639304
2.539000	1.664749
2.540000	1.659918
2.541000	1.646712
2.542000	1.622555
2.543000	1.601941
2.544000	1.576817
2.545000	1.561679
2.546000	1.551694
2.547000	1.527859
2.548000	1.532046
2.549000	1.557492
2.550000	1.557814
2.551000	1.564256
2.552000	1.628674
2.553000	1.658307
2.554000	1.639948
2.555000	1.595177
2.556000	1.536555
2.557000	1.486953
2.558000	1.461185
2.559000	1.428654
2.560000	1.470204
2.561000	1.624809
2.562000	1.745273
2.563000	1.761700
2.564000	1.704367
2.565000	1.661850
2.566000	1.619334
2.567000	1.613858
2.568000	1.602907
2.569000	1.578106
2.570000	1.560713
2.571000	1.524316
2.572000	1.494361
2.573000	1.474069
2.574000	1.475357
2.575000	1.470526
2.576000	1.424789
2.577000	1.400309
2.578000	1.337179
2.579000	1.313988
2.580000	1.314632
2.581000	1.356183
2.582000	1.391291
2.583000	1.364235
2.584000	1.320752
2.585000	1.271150
2.586000	1.279846
2.587000	1.316887
2.588000	1.378085
2.589000	1.408684
2.590000	1.440893
2.591000	1.520451
2.592000	1.667970
2.593000	1.872500
2.594000	1.932732
2.595000	1.891826
2.596000	1.853819
2.597000	1.888283
2.598000	1.881841
2.599000	1.787789
2.600000	1.600652
2.601000	1.409006
2.602000	1.299494
2.603000	1.301426
2.604000	1.370999
2.605000	1.449268
2.606000	1.537522
2.607000	1.648644
2.608000	1.732389
2.609000	1.746561
2.610000	1.767497
2.611000	1.781669
2.612000	1.787467
2.613000	1.706621
2.614000	1.591312
2.615000	1.494361
2.616000	1.478901
2.617000	1.472137
2.618000	1.456354
2.619000	1.489530
2.620000	1.567477
2.621000	1.655086
2.622000	1.690195
2.623000	1.677633
2.624000	1.633506
2.625000	1.576495
2.626000	1.556525
2.627000	1.575529
2.628000	1.626098
2.629000	1.668614
2.630000	1.687940
2.631000	1.692771
2.632000	1.724014
2.633000	1.729490
2.634000	1.728202
2.635000	1.732711
2.636000	1.739153
2.637000	1.761055
2.638000	1.778771
2.639000	1.724337
2.640000	1.579716
2.641000	1.493073
2.642000	1.454421
2.643000	1.437672
2.644000	1.444436
2.645000	1.417058
2.646000	1.345231
2.647000	1.246348
2.648000	1.182574
2.649000	1.192881
2.650000	1.261809
2.651000	1.359081
2.652000	1.487275
2.653000	1.604839
2.654000	1.723370
2.655000	1.849309
2.656000	1.937563
2.657000	1.858006
2.658000	1.655408
2.659000	1.494361
2.660000	1.455066
2.661000	1.530436
2.662000	1.604195
2.663000	1.616113
2.664000	1.646068
2.665000	1.705655
2.666000	1.744951
2.667000	1.807115
2.668000	1.801961
2.669000	1.818710
2.670000	1.842223
2.671000	1.847699
2.672000	1.848987
2.673000	1.793909
2.674000	1.687296
2.675000	1.628030
2.676000	1.623843
2.677000	1.601941
2.678000	1.562645
2.679000	1.493073
2.680000	1.446047
2.681000	1.381950
2.682000	1.341688
2.683000	1.315921
2.684000	1.294340
2.685000	1.294018
2.686000	1.335891
2.687000	1.396766
2.688000	1.480189
2.689000	1.534301
2.690000	1.621588
2.691000	1.716928
2.692000	1.739475
2.693000	1.755902
2.694000	1.731101
2.695000	1.667648
2.696000	1.631895
2.697000	1.610637
2.698000	1.582937
2.699000	1.552338
2.700000	1.568121
2.701000	1.589379
2.702000	1.596787
2.703000	1.617079
2.704000	1.683431
2.705000	1.767497
2.706000	1.782636
2.707000	1.648644
2.708000	1.488241
2.709000	1.422212
2.710000	1.396444
2.711000	1.395156
2.712000	1.409328
2.713000	1.444759
2.714000	1.522061
2.715000	1.594855
2.716000	1.649611
2.717000	1.699213
2.718000	1.710164
2.719000	1.733033
2.720000	1.737542
2.721000	1.733999
2.722000	1.701790
2.723000	1.620622
2.724000	1.552660
2.725000	1.546540
2.726000	1.535589
2.727000	1.501769
2.728000	1.442504
2.729000	1.387748
2.730000	1.385815
2.731000	1.424789
2.732000	1.467627
2.733000	1.552016
2.734000	1.634150
2.735000	1.680210
2.736000	1.705655
2.737000	1.749782
2.738000	1.812590
2.739000	1.863481
2.740000	1.728524
2.741000	1.565866
2.742000	1.491140
2.743000	1.448946
2.744000	1.438961
2.745000	1.465373
2.746000	1.552660
2.747000	1.687618
2.748000	1.856395
2.749000	2.005525
2.750000	2.107307
2.751000	2.132753
2.752000	2.020020
2.753000	1.789722
2.754000	1.565222
2.755000	1.434774
2.756000	1.337823
2.757000	1.297883
2.758000	1.291764
2.759000	1.283067
2.760000	1.320108
2.761000	1.381950
2.762000	1.467305
2.763000	1.552016
2.764000	1.642202
2.765000	1.749460
2.766000	1.852852
2.767000	1.951413
2.768000	1.947870
2.769000	1.857040
2.770000	1.782314
2.771000	1.721438
2.772000	1.672479
2.773000	1.632540
2.774000	1.584225
2.775000	1.524960
2.776000	1.468593
2.777000	1.427365
2.778000	1.476646
2.779000	1.504990
2.780000	1.492751
2.781000	1.522383
2.782000	1.577461
2.783000	1.629641
2.784000	1.634472
2.785000	1.610637
2.786000	1.578750
2.787000	1.550406
2.788000	1.516908
2.789000	1.461507
2.790000	1.441860
2.791000	1.480833
2.792000	1.541709
2.793000	1.589057
2.794000	1.657985
2.795000	1.724014
2.796000	1.764276
2.797000	1.766531
2.798000	1.724014
2.799000	1.648966
2.800000	1.563933
2.801000	1.495649
2.802000	1.473103
2.803000	1.472459
2.804000	1.485665
2.805000	1.496938
2.806000	1.520773
2.807000	1.530758
2.808000	1.546862
2.809000	1.558780
2.810000	1.558780
2.811000	1.542997
2.812000	1.496294
2.813000	1.455388
2.814000	1.441860
2.815000	1.393223
2.816000	1.342010
2.817000	1.340722
2.818000	1.370999
2.819000	1.436384
2.820000	1.520129
2.821000	1.539776
2.822000	1.564900
2.823000	1.652832
2.824000	1.741408
2.825000	1.767175
2.826000	1.781992
2.827000	1.815167
2.828000	1.796164
2.829000	1.768141
2.830000	1.729812
2.831000	1.705655
2.832000	1.733033
2.833000	1.798096
2.834000	1.782636
2.835000	1.726591
2.836000	1.678277
2.837000	1.630285
2.838000	1.591634
2.839000	1.579716
2.840000	1.577784
2.841000	1.518840
2.842000	1.420279
2.843000	1.345231
2.844000	1.305292
2.845000	1.210274
2.846000	1.136514
2.847000	1.144244
2.848000	1.222191
2.849000	1.336213
2.850000	1.453133
2.851000	1.589057
2.852000	1.743018
2.853000	1.860583
2.854000	1.910507
2.855000	1.849631
2.856000	1.830306
2.857000	1.874433
2.858000	1.880552
2.859000	1.824186
2.860000	1.784568
2.861000	1.742696
2.862000	1.711453
2.863000	1.684075
2.864000	1.666037
2.865000	1.616435
2.866000	1.562645
2.867000	1.556847
2.868000	1.586480
2.869000	1.587768
2.870000	1.499192
2.871000	1.409328
2.872000	1.334280
2.873000	1.333314
2.874000	1.388070
2.875000	1.414482
2.876000	1.407073
2.877000	1.444436
2.878000	1.493073
2.879000	1.553626
2.880000	1.613858
2.881000	1.702756
2.882000	1.747849
2.883000	1.731423
2.884000	1.699857
2.885000	1.684397
2.886000	1.691805
2.887000	1.713063
2.888000	1.717895
2.889000	1.694382
2.890000	1.669580
2.891000	1.651221
2.892000	1.623843
2.893000	1.595177
2.894000	1.576495
2.895000	1.574563
2.896000	1.580682
2.897000	1.585836
2.898000	1.586802
2.899000	1.589379
2.900000	1.593888
2.901000	1.596143
2.902000	1.599364
2.903000	1.597109
2.904000	1.602907
2.905000	1.602585
2.906000	1.601296
2.907000	1.592922
2.908000	1.571986
2.909000	1.510788
2.910000	1.458286
2.911000	1.398055
2.912000	1.347164
2.913000	1.366812
2.914000	1.430908
2.915000	1.528181
2.916000	1.607416
2.917000	1.662816
2.918000	1.707266
2.919000	1.724337
2.920000	1.710809
2.921000	1.705333
2.922000	1.685363
2.923000	1.647356
2.924000	1.643491
2.925000	1.611926
2.926000	1.583903
2.927000	1.561679
2.928000	1.541387
2.929000	1.534945
2.930000	1.531724
2.931000	1.546218
2.932000	1.581004
2.933000	1.586802
2.934000	1.569087
2.935000	1.528825
2.936000	1.533979
2.937000	1.576495
2.938000	1.605806
2.939000	1.592922
2.940000	1.603229
2.941000	1.627064
2.942000	1.656375
2.943000	1.646712
2.944000	1.596465
2.945000	1.549117
2.946000	1.522383
2.947000	1.522705
2.948000	1.522383
2.949000	1.548795
2.950000	1.587768
2.951000	1.627708
2.952000	1.642847
2.953000	1.653476
2.954000	1.670547
2.955000	1.691161
2.956000	1.685685
2.957000	1.667970
2.958000	1.649611
2.959000	1.650255
2.960000	1.657341
2.961000	1.652832
2.962000	1.666360
2.963000	1.648644
2.964000	1.640914
2.965000	1.599364
2.966000	1.561357
2.967000	1.563611
2.968000	1.562645
2.969000	1.550406
2.970000	1.549761
2.971000	1.553626
2.972000	1.559424
2.973000	1.561357
2.974000	1.570053
2.975000	1.576173
2.976000	1.568121
2.977000	1.569087
2.978000	1.573918
2.979000	1.577461
2.980000	1.581004
2.981000	1.580360
2.982000	1.568121
2.983000	1.560390
2.984000	1.569731
2.985000	1.566832
2.986000	1.572952
2.987000	1.584225
2.988000	1.535267
2.989000	1.426077
2.990000	1.379051
2.991000	1.383883
2.992000	1.408040
2.993000	1.434451
2.994000	1.479223
2.995000	1.543964
2.996000	1.607416
2.997000	1.697925
2.998000	1.802606
2.999000	1.873466
3.000000	1.898590
3.001000	1.860583
3.002000	1.792299
3.003000	1.676667
3.004000	1.585514
3.005000	1.513365
3.006000	1.476002
3.007000	1.455388
3.008000	1.453455
3.009000	1.468593
3.010000	1.500481
3.011000	1.524960
3.012000	1.534945
3.013000	1.562323
3.014000	1.571020
3.015000	1.573918
3.016000	1.543642
3.017000	1.511432
3.018000	1.457320
3.019000	1.421568
3.020000	1.387426
3.021000	1.374864
3.022000	1.360692
3.023000	1.378085
3.024000	1.465373
3.025000	1.555881
3.026000	1.613858
3.027000	1.665715
3.028000	1.695670
3.029000	1.722726
3.030000	1.717895
3.031000	1.715962
3.032000	1.664427
3.033000	1.495649
3.034000	1.448946
3.035000	1.461830
3.036000	1.477612
3.037000	1.499837
3.038000	1.512398
3.039000	1.530758
3.040000	1.614502
3.041000	1.716928
3.042000	1.806471
3.043000	1.864448
3.044000	1.900844
3.045000	1.931121
3.046000	1.959466
3.047000	1.905032
3.048000	1.800351
3.049000	1.714352
3.050000	1.658307
3.051000	1.602585
3.052000	1.569409
3.053000	1.555881
3.054000	1.543319
3.055000	1.547185
3.056000	1.553949
3.057000	1.558780
3.058000	1.562001
3.059000	1.559102
3.060000	1.553304
3.061000	1.554271
3.062000	1.556847
3.063000	1.556525
3.064000	1.527215
3.065000	1.518840
3.066000	1.515941
3.067000	1.521417
3.068000	1.538166
3.069000	1.556203
3.070000	1.578106
3.071000	1.593244
3.072000	1.604517
3.073000	1.610959
3.074000	1.601941
3.075000	1.596143
3.076000	1.583903
3.077000	1.570375
3.078000	1.558780
3.079000	1.550406
3.080000	1.496616
3.081000	1.461507
3.082000	1.443470
3.083000	1.427688
3.084000	1.382916
3.085000	1.351673
3.086000	1.380340
3.087000	1.428332
3.088000	1.439283
3.089000	1.391613
3.090000	1.378729
3.091000	1.413193
3.092000	1.435418
3.093000	1.461830
3.094000	1.508533
3.095000	1.582293
3.096000	1.656697
3.097000	1.703400
3.098000	1.765565
3.099000	1.838036
3.100000	1.935953
3.101000	2.020664
3.102000	1.956245
3.103000	1.749138
3.104000	1.653154
3.105000	1.647034
3.106000	1.604839
3.107000	1.518196
3.108000	1.471170
3.109000	1.456032
3.110000	1.448624
3.111000	1.447335
3.112000	1.454421
3.113000	1.475680
3.114000	1.503380
3.115000	1.535911
3.116000	1.567477
3.117000	1.590345
3.118000	1.581327
3.119000	1.558136
3.120000	1.562323
3.121000	1.568765
3.122000	1.545574
3.123000	1.494039
3.124000	1.448946
3.125000	1.434774
3.126000	1.418347
3.127000	1.395478
3.128000	1.359726
3.129000	1.386782
3.130000	1.424144
3.131000	1.491140
3.132000	1.548473
3.133000	1.595821
3.134000	1.642847
3.135000	1.710486
3.136000	1.755258
3.137000	1.786179
3.138000	1.777482
3.139000	1.724014
3.140000	1.690195
3.141000	1.651543
3.142000	1.521417
3.143000	1.443792
3.144000	1.419957
3.145000	1.421246
3.146000	1.439605
3.147000	1.442182
3.148000	1.465050
3.149000	1.501769
3.150000	1.510788
3.151000	1.529147
3.152000	1.554593
3.153000	1.570697
3.154000	1.611603
3.155000	1.643491
3.156000	1.667004
3.157000	1.674412
3.158000	1.686329
3.159000	1.695992
3.160000	1.722082
3.161000	1.714352
3.162000	1.722404
3.163000	1.707266
3.164000	1.579716
3.165000	1.516908
3.166000	1.492106
3.167000	1.470848
3.168000	1.450556
3.169000	1.458609
3.170000	1.469882
3.171000	1.518518
3.172000	1.562967
3.173000	1.594855
3.174000	1.622555
3.175000	1.646068
3.176000	1.652832
3.177000	1.521095
3.178000	1.422212
3.179000	1.404175
3.180000	1.380662
3.181000	1.368422
3.182000	1.380340
3.183000	1.419635
3.184000	1.492428
3.185000	1.536233
3.186000	1.593888
3.187000	1.674090
3.188000	1.734321
3.189000	1.750426
3.190000	1.756868
3.191000	1.737865
3.192000	1.713063
3.193000	1.659918
3.194000	1.542675
3.195000	1.394190
3.196000	1.338789
3.197000	1.337501
3.198000	1.333958
3.199000	1.344265
3.200000	1.349096
3.201000	1.405141
3.202000	1.482121
3.203000	1.570053
3.204000	1.597109
3.205000	1.626098
3.206000	1.705011
3.207000	1.781992
3.208000	1.837714
3.209000	1.868957
3.210000	1.842867
3.211000	1.724337
3.212000	1.672157
3.213000	1.639304
3.214000	1.638659
3.215000	1.688262
3.216000	1.763310
3.217000	1.795519
3.218000	1.779415
3.219000	1.744951
3.220000	1.709842
3.221000	1.658307
3.222000	1.624487
3.223000	1.632540
3.224000	1.660562
3.225000	1.693415
3.226000	1.689228
3.227000	1.664105
3.228000	1.621910
3.229000	1.550083
3.230000	1.499515
3.231000	1.447013
3.232000	1.402886
3.233000	1.400954
3.234000	1.428010
3.235000	1.469238
3.236000	1.527215
3.237000	1.583903
3.238000	1.614824
3.239000	1.635761
3.240000	1.646390
3.241000	1.660240
3.242000	1.659596
3.243000	1.655086
3.244000	1.647034
3.245000	1.621910
3.246000	1.589701
3.247000	1.557814
3.248000	1.540743
3.249000	1.539454
3.250000	1.549439
3.251000	1.557492
3.252000	1.547829
3.253000	1.488885
3.254000	1.408684
3.255000	1.367778
3.256000	1.354894
3.257000	1.354572
3.258000	1.364879
3.259000	1.370677
3.260000	1.399987
3.261000	1.451200
3.262000	1.513043
3.263000	1.594532
3.264000	1.672479
3.265000	1.757512
3.266000	1.816134
3.267000	1.844478
3.268000	1.846410
3.269000	1.817100
3.270000	1.774583
3.271000	1.734321
3.272000	1.709198
3.273000	1.691161
3.274000	1.600974
3.275000	1.488885
3.276000	1.382272
3.277000	1.326872
3.278000	1.325261
3.279000	1.347808
3.280000	1.388714
3.281000	1.439283
3.282000	1.502736
3.283000	1.545574
3.284000	1.585192
3.285000	1.628030
3.286000	1.666360
3.287000	1.695670
3.288000	1.695992
3.289000	1.672801
3.290000	1.619656
3.291000	1.560068
3.292000	1.553949
3.293000	1.567154
3.294000	1.583259
3.295000	1.623199
3.296000	1.656697
3.297000	1.688262
3.298000	1.696314
3.299000	1.681820
3.300000	1.673124
3.301000	1.658307
3.302000	1.655730
3.303000	1.651221
3.304000	1.619334
3.305000	1.573274
3.306000	1.520451
3.307000	1.469560
3.308000	1.429620
3.309000	1.394512
3.310000	1.370033
3.311000	1.373898
3.312000	1.398377
3.313000	1.437672
3.314000	1.482766
3.315000	1.528825
3.316000	1.574563
3.317000	1.587446
3.318000	1.518518
3.319000	1.486309
3.320000	1.493717
3.321000	1.511754
3.322000	1.528825
3.323000	1.546540
3.324000	1.563933
3.325000	1.591634
3.326000	1.615791
3.327000	1.647678
3.328000	1.679243
3.329000	1.711775
3.330000	1.730778
3.331000	1.728524
3.332000	1.702112
3.333000	1.684397
3.334000	1.649289
3.335000	1.601296
3.336000	1.549761
3.337000	1.522383
3.338000	1.519484
3.339000	1.520129
3.340000	1.516263
3.341000	1.520451
3.342000	1.519484
3.343000	1.477612
3.344000	1.341366
3.345000	1.282101
3.346000	1.288543
3.347000	1.323651
3.348000	1.382916
3.349000	1.442826
3.350000	1.505634
3.351000	1.559424
3.352000	1.616113
3.353000	1.673446
3.354000	1.720794
3.355000	1.769430
3.356000	1.800673
3.357000	1.793265
3.358000	1.731423
3.359000	1.631573
3.360000	1.533979
3.361000	1.474391
3.362000	1.433163
3.363000	1.419313
3.364000	1.421890
3.365000	1.452811
3.366000	1.490174
3.367000	1.535911
3.368000	1.574563
3.369000	1.619978
3.370000	1.633828
3.371000	1.622555
3.372000	1.602907
3.373000	1.592922
3.374000	1.571664
3.375000	1.547829
3.376000	1.546218
3.377000	1.552016
3.378000	1.515297
3.379000	1.437995
3.380000	1.403530
3.381000	1.406429
3.382000	1.447335
3.383000	1.503702
3.384000	1.572630
3.385000	1.637049
3.386000	1.694382
3.387000	1.745917
3.388000	1.802283
3.389000	1.828695
3.390000	1.790688
3.391000	1.739153
3.392000	1.712419
3.393000	1.665393
3.394000	1.619978
3.395000	1.608383
3.396000	1.615791
3.397000	1.620300
3.398000	1.619334
3.399000	1.626742
3.400000	1.640270
3.401000	1.655730
3.402000	1.676344
3.403000	1.692449
3.404000	1.667648
3.405000	1.633506
3.406000	1.615469
3.407000	1.612570
3.408000	1.603873
3.409000	1.586802
3.410000	1.520451
3.411000	1.416092
3.412000	1.361658
3.413000	1.339434
3.414000	1.335568
3.415000	1.342977
3.416000	1.378085
3.417000	1.431231
3.418000	1.483732
3.419000	1.564256
3.420000	1.652509
3.421000	1.725947
3.422000	1.771040
3.423000	1.809692
3.424000	1.825152
3.425000	1.802283
3.426000	1.716928
3.427000	1.609349
3.428000	1.536233
3.429000	1.508211
3.430000	1.504024
3.431000	1.506601
3.432000	1.495005
3.433000	1.490496
3.434000	1.440893
3.435000	1.434774
3.436000	1.470526
3.437000	1.519162
3.438000	1.578106
3.439000	1.630607
3.440000	1.682786
3.441000	1.652187
3.442000	1.562967
3.443000	1.514009
3.444000	1.490496
3.445000	1.468916
3.446000	1.480189
3.447000	1.524316
3.448000	1.576817
3.449000	1.610959
3.450000	1.613858
3.451000	1.495649
3.452000	1.361980
3.453000	1.304003
3.454000	1.293696
3.455000	1.320108
3.456000	1.398699
3.457000	1.509499
3.458000	1.640914
3.459000	1.718539
3.460000	1.811946
3.461000	1.911151
3.462000	1.990065
3.463000	2.051907
3.464000	2.066723
3.465000	2.010035
3.466000	1.871856
3.467000	1.734966
3.468000	1.627386
3.469000	1.537844
3.470000	1.493395
3.471000	1.491784
3.472000	1.535911
3.473000	1.589379
3.474000	1.620300
3.475000	1.626742
3.476000	1.625131
3.477000	1.609671
3.478000	1.580038
3.479000	1.565544
3.480000	1.563933
3.481000	1.563933
3.482000	1.547507
3.483000	1.546218
3.484000	1.550083
3.485000	1.540421
3.486000	1.504990
3.487000	1.451522
3.488000	1.431553
3.489000	1.443792
3.490000	1.479867
3.491000	1.524638
3.492000	1.556525
3.493000	1.546540
3.494000	1.509499
3.495000	1.538488
3.496000	1.555881
3.497000	1.456676
3.498000	1.426399
3.499000	1.424789
3.500000	1.429298
3.501000	1.346520
3.502000	1.294340
3.503000	1.314310
3.504000	1.301104
3.505000	1.331703
3.506000	1.380018
3.507000	1.462796
3.508000	1.572630
3.509000	1.691161
3.510000	1.819999
3.511000	1.905354
3.512000	1.944005
3.513000	1.931766
3.514000	1.922425
3.515000	1.924679
3.516000	1.919526
3.517000	1.832882
3.518000	1.751393
3.519000	1.702112
3.520000	1.636727
3.521000	1.588091
3.522000	1.585836
3.523000	1.609671
3.524000	1.657663
3.525000	1.648966
3.526000	1.625454
3.527000	1.608383
3.528000	1.618690
3.529000	1.652187
3.530000	1.693093
3.531000	1.604517
3.532000	1.528503
3.533000	1.505956
3.534000	1.466017
3.535000	1.451200
3.536000	1.450556
3.537000	1.461185
3.538000	1.473103
3.539000	1.494361
3.540000	1.522383
3.541000	1.557814
3.542000	1.578106
3.543000	1.605162
3.544000	1.590989
3.545000	1.599364
3.546000	1.556847
3.547000	1.479545
3.548000	1.424467
3.549000	1.405463
3.550000	1.380984
3.551000	1.382916
3.552000	1.421568
3.553000	1.476324
3.554000	1.537844
3.555000	1.632862
3.556000	1.732711
3.557000	1.802283
3.558000	1.843189
3.559000	1.860583
3.560000	1.861227
3.561000	1.763632
3.562000	1.638015
3.563000	1.564578
3.564000	1.513687
3.565000	1.503058
3.566000	1.509177
3.567000	1.523027
3.568000	1.490496
3.569000	1.372287
3.570000	1.304647
3.571000	1.314954
3.572000	1.351029
3.573000	1.409972
3.574000	1.481155
3.575000	1.550083
3.576000	1.612248
3.577000	1.653476
3.578000	1.670869
3.579000	1.695348
3.580000	1.714996
3.581000	1.721116
3.582000	1.740441
3.583000	1.742696
3.584000	1.704045
3.585000	1.632540
3.586000	1.467627
3.587000	1.371321
3.588000	1.335568
3.589000	1.331381
3.590000	1.366167
3.591000	1.427043
3.592000	1.523994
3.593000	1.623521
3.594000	1.703078
3.595000	1.779415
3.596000	1.816134
3.597000	1.738831
3.598000	1.604839
3.599000	1.507889
3.600000	1.423822
3.601000	1.355860
3.602000	1.306580
3.603000	1.211562
3.604000	1.201255
3.605000	1.244094
3.606000	1.316565
3.607000	1.369388
3.608000	1.446369
3.609000	1.519807
3.610000	1.623843
3.611000	1.745595
3.612000	1.842545
3.613000	1.885062
3.614000	1.903421
3.615000	1.900522
3.616000	1.895047
3.617000	1.880875
3.618000	1.869601
3.619000	1.864448
3.620000	1.871856
3.621000	1.880875
3.622000	1.878298
3.623000	1.824830
3.624000	1.748816
3.625000	1.648644
3.626000	1.542353
3.627000	1.459897
3.628000	1.401598
3.629000	1.353606
3.630000	1.329449
3.631000	1.246348
3.632000	1.172267
3.633000	1.183218
3.634000	1.249569
3.635000	1.356827
3.636000	1.457642
3.637000	1.548151
3.638000	1.620300
3.639000	1.586480
3.640000	1.520451
3.641000	1.461507
3.642000	1.465050
3.643000	1.502413
3.644000	1.554593
3.645000	1.639948
3.646000	1.607416
3.647000	1.476968
3.648000	1.302071
3.649000	1.227989
3.650000	1.112035
3.651000	1.075960
3.652000	1.152941
3.653000	1.287899
3.654000	1.428654
3.655000	1.551372
3.656000	1.676022
3.657000	1.805504
3.658000	1.945616
3.659000	2.087337
3.660000	2.202969
3.661000	2.273830
3.662000	2.279950
3.663000	2.238722
3.664000	2.155944
3.665000	2.050296
3.666000	1.931121
3.667000	1.816134
3.668000	1.701468
3.669000	1.603551
3.670000	1.523027
3.671000	1.469560
3.672000	1.443148
3.673000	1.436384
3.674000	1.433163
3.675000	1.399021
3.676000	1.333314
3.677000	1.272116
3.678000	1.223158
3.679000	1.215749
3.680000	1.174521
3.681000	1.146821
3.682000	1.094320
3.683000	1.076605
3.684000	1.144889
3.685000	1.293696
3.686000	1.439605
3.687000	1.532690
3.688000	1.553304
3.689000	1.594210
3.690000	1.753969
3.691000	1.936919
3.692000	2.047398
3.693000	2.088304
3.694000	2.018731
3.695000	1.843189
3.696000	1.711453
3.697000	1.693738
3.698000	1.692449
3.699000	1.673446
3.700000	1.709842
3.701000	1.740763
3.702000	1.761377
3.703000	1.756868
3.704000	1.722726
3.705000	1.679243
3.706000	1.631573
3.707000	1.623199
3.708000	1.549761
3.709000	1.432197
3.710000	1.378407
3.711000	1.376797
3.712000	1.443792
3.713000	1.504346
3.714000	1.500159
3.715000	1.485987
3.716000	1.466661
3.717000	1.484054
3.718000	1.524638
3.719000	1.586480
3.720000	1.671513
3.721000	1.760733
3.722000	1.852530
3.723000	1.932410
3.724000	1.961720
3.725000	1.949481
3.726000	1.941428
3.727000	1.947226
3.728000	1.886028
3.729000	1.783280
3.730000	1.731423
3.731000	1.698247
3.732000	1.639626
3.733000	1.504668
3.734000	1.271150
3.735000	1.188049
3.736000	1.193525
3.737000	1.242161
3.738000	1.323329
3.739000	1.428332
3.740000	1.528825
3.741000	1.526893
3.742000	1.507245
3.743000	1.522705
3.744000	1.583903
3.745000	1.638015
3.746000	1.582293
3.747000	1.415448
3.748000	1.319464
3.749000	1.250536
3.750000	1.233787
3.751000	1.252790
3.752000	1.249569
3.753000	1.312378
3.754000	1.357471
3.755000	1.303037
3.756000	1.324939
3.757000	1.398699
3.758000	1.520129
3.759000	1.656697
3.760000	1.765243
3.761000	1.817744
3.762000	1.855429
3.763000	1.906964
3.764000	1.918882
3.765000	1.989743
3.766000	2.121479
3.767000	2.198138
3.768000	2.232280
3.769000	2.206512
3.770000	2.140483
3.771000	2.056094
3.772000	1.932088
3.773000	1.815167
3.774000	1.754291
3.775000	1.714674
3.776000	1.693415
3.777000	1.671513
3.778000	1.628997
3.779000	1.580038
3.780000	1.536555
3.781000	1.452167
3.782000	1.263097
3.783000	1.194169
3.784000	1.172267
3.785000	1.100440
3.786000	1.090777
3.787000	1.117189
3.788000	1.179997
3.789000	1.232176
3.790000	1.273726
3.791000	1.297239
3.792000	1.286288
3.793000	1.361658
3.794000	1.518196
3.795000	1.717895
3.796000	1.848987
3.797000	1.879264
3.798000	1.880230
3.799000	1.873466
3.800000	1.855429
3.801000	1.822575
3.802000	1.799385
3.803000	1.712097
3.804000	1.639304
3.805000	1.594532
3.806000	1.513687
3.807000	1.516263
3.808000	1.567799
3.809000	1.570697
3.810000	1.445403
3.811000	1.409972
3.812000	1.459575
3.813000	1.529147
3.814000	1.642525
3.815000	1.768464
3.816000	1.836426
3.817000	1.860583
3.818000	1.842223
3.819000	1.815489
3.820000	1.795842
3.821000	1.753647
3.822000	1.698569
3.823000	1.699535
3.824000	1.680210
3.825000	1.667004
3.826000	1.631895
3.827000	1.603551
3.828000	1.579394
3.829000	1.568443
3.830000	1.555559
3.831000	1.535589
3.832000	1.424467
3.833000	1.384527
3.834000	1.416092
3.835000	1.452489
3.836000	1.498226
3.837000	1.511110
3.838000	1.503058
3.839000	1.501125
3.840000	1.520773
3.841000	1.578106
3.842000	1.593566
3.843000	1.597431
3.844000	1.622877
3.845000	1.628030
3.846000	1.459575
3.847000	1.360370
3.848000	1.214783
3.849000	1.057601
3.850000	1.002201
3.851000	1.028290
3.852000	1.087234
3.853000	1.122020
3.854000	1.166147
3.855000	1.268573
3.856000	1.415126
3.857000	1.616113
3.858000	1.838680
3.859000	2.027106
3.860000	2.158198
3.861000	2.175269
3.862000	2.107629
3.863000	2.006169
3.864000	1.899878
3.865000	1.828373
3.866000	1.745595
3.867000	1.657019
3.868000	1.533657
3.869000	1.518518
3.870000	1.627708
3.871000	1.740119
3.872000	1.844156
3.873000	1.790044
3.874000	1.650577
3.875000	1.446691
3.876000	1.332348
3.877000	1.276625
3.878000	1.214783
3.879000	1.199323
3.880000	1.249247
3.881000	1.248281
3.882000	1.268895
3.883000	1.339112
3.884000	1.463118
3.885000	1.464084
3.886000	1.358437
3.887000	1.407718
3.888000	1.522061
3.889000	1.617723
3.890000	1.686651
3.891000	1.745595
3.892000	1.831594
3.893000	1.952058
3.894000	2.045143
3.895000	2.107307
3.896000	2.179779
3.897000	2.263845
3.898000	2.288647
3.899000	2.221651
3.900000	2.008424
3.901000	1.757190
3.902000	1.574563
3.903000	1.467627
3.904000	1.360370
3.905000	1.294018
3.906000	1.275981
3.907000	1.278558
3.908000	1.326228
3.909000	1.359726
3.910000	1.377441
3.911000	1.388070
3.912000	1.379373
3.913000	1.361980
3.914000	1.376474
3.915000	1.431553
3.916000	1.545252
3.917000	1.661206
3.918000	1.744629
3.919000	1.808725
3.920000	1.862837
3.921000	1.936597
3.922000	1.992641
3.923000	2.011645
3.924000	1.950447
3.925000	1.816456
3.926000	1.662172
3.927000	1.515297
3.928000	1.351029
3.929000	1.259554
3.930000	1.230244
3.931000	1.091099
3.932000	0.923610
3.933000	0.822472
3.934000	0.776735
3.935000	0.832779
3.936000	0.939070
3.937000	1.091421
3.938000	1.300782
3.939000	1.545896
3.940000	1.823542
3.941000	2.057383
3.942000	2.154655
3.943000	2.238722
3.944000	2.330841
3.945000	2.326332
3.946000	2.320534
3.947000	2.218108
3.948000	2.056738
3.949000	1.866702
3.950000	1.707588
3.951000	1.562001
3.952000	1.435096
3.953000	1.331703
3.954000	1.271150
3.955000	1.246993
3.956000	1.302393
3.957000	1.418991
3.958000	1.533657
3.959000	1.596465
3.960000	1.642525
3.961000	1.704367
3.962000	1.774583
3.963000	1.798418
3.964000	1.790044
3.965000	1.729168
3.966000	1.636405
3.967000	1.605806
3.968000	1.616113
3.969000	1.620944
3.970000	1.654764
3.971000	1.648966
3.972000	1.576173
3.973000	1.507245
3.974000	1.497582
3.975000	1.518840
3.976000	1.533334
3.977000	1.576817
3.978000	1.559424
3.979000	1.478901
3.980000	1.257622
3.981000	1.073706
3.982000	0.999302
3.983000	1.021849
3.984000	1.074028
3.985000	1.121698
3.986000	1.207053
3.987000	1.324295
3.988000	1.481477
3.989000	1.588413
3.990000	1.749138
3.991000	1.947870
3.992000	2.134363
3.993000	2.265134
3.994000	2.271898
3.995000	2.163996
3.996000	2.059637
3.997000	1.896013
3.998000	1.716606
3.999000	1.554593
4.000000	1.445081
4.001000	1.408362
4.002000	1.391935
4.003000	1.424467
4.004000	1.483410
4.005000	1.456032
4.006000	1.480189
4.007000	1.534945
4.008000	1.461507
4.009000	1.408362
4.010000	1.198034
4.011000	0.963227
4.012000	0.868532
4.013000	0.869176
4.014000	0.978044
4.015000	1.149398
4.016000	1.420279
4.017000	1.749782
4.018000	2.026461
4.019000	2.179134
4.020000	2.316347
4.021000	2.360796
4.022000	2.378833
4.023000	2.358219
4.024000	2.259014
4.025000	2.090236
4.026000	1.937241
4.027000	1.649933
4.028000	1.368744
4.029000	1.244416
4.030000	1.093676
4.031000	1.014763
4.032000	1.007676
4.033000	1.028935
4.034000	1.017017
4.035000	1.028935
4.036000	1.132971
4.037000	1.290797
4.038000	1.451845
4.039000	1.657985
4.040000	1.874755
4.041000	2.022596
4.042000	2.130498
4.043000	2.142738
4.044000	2.126955
4.045000	2.070588
4.046000	2.006169
4.047000	1.971061
4.048000	1.937885
4.049000	1.904065
4.050000	1.869279
4.051000	1.820965
4.052000	1.725947
4.053000	1.496616
4.054000	1.264708
4.055000	1.176454
4.056000	1.189338
4.057000	1.236363
4.058000	1.298850
4.059000	1.358115
4.060000	1.428332
4.061000	1.497904
4.062000	1.422212
4.063000	1.342332
4.064000	1.305936
4.065000	1.293052
4.066000	1.218004
4.067000	1.248925
4.068000	1.302071
4.069000	1.186761
4.070000	1.113968
4.071000	1.085623
4.072000	1.143600
4.073000	1.245382
4.074000	1.434451
4.075000	1.648322
4.076000	1.875399
4.077000	2.150790
4.078000	2.354354
4.079000	2.429402
4.080000	2.461934
4.081000	2.460323
4.082000	2.386886
4.083000	1.963975
4.084000	1.586480
4.085000	1.385171
4.086000	1.260843
4.087000	1.226378
4.088000	1.299172
4.089000	1.424467
4.090000	1.643491
4.091000	1.877009
4.092000	1.999083
4.093000	2.030971
4.094000	2.039989
4.095000	2.039345
4.096000	1.951413
4.097000	1.769108
4.098000	1.593888
4.099000	1.456676
4.100000	1.381950
4.101000	1.345876
4.102000	1.340722
4.103000	1.294018
4.104000	1.326550
4.105000	1.429620
4.106000	1.570697
4.107000	1.674090
4.108000	1.702434
4.109000	1.647034
4.110000	1.538488
4.111000	1.355216
4.112000	1.201255
4.113000	1.163892
4.114000	1.142956
4.115000	1.162604
4.116000	1.221225
4.117000	1.305292
4.118000	1.380340
4.119000	1.387748
4.120000	1.272438
4.121000	1.288543
4.122000	1.375186
4.123000	1.492751
4.124000	1.629319
4.125000	1.684075
4.126000	1.570375
4.127000	1.405785
4.128000	1.434129
4.129000	1.489530
4.130000	1.528503
4.131000	1.611603
4.132000	1.719505
4.133000	1.797774
4.134000	1.887639
4.135000	2.020020
4.136000	2.156588
4.137000	2.303785
4.138000	2.382054
4.139000	2.353066
4.140000	2.245164
4.141000	2.055772
4.142000	1.778771
4.143000	1.583903
4.144000	1.477612
4.145000	1.363269
4.146000	1.309801
4.147000	1.343299
4.148000	1.402886
4.149000	1.315599
4.150000	1.204798
4.151000	1.168079
4.152000	1.168079
4.153000	1.155840
4.154000	1.140701
4.155000	1.189338
4.156000	1.214139
4.157000	1.176454
4.158000	1.229599
4.159000	1.371965
4.160000	1.628030
4.161000	1.886672
4.162000	2.024851
4.163000	1.891504
4.164000	1.840291
4.165000	1.938852
4.166000	2.051263
4.167000	2.071555
4.168000	1.922103
4.169000	1.836748
4.170000	1.789400
4.171000	1.802283
4.172000	1.722404
4.173000	1.565222
4.174000	1.373254
4.175000	1.220903
4.176000	1.113001
4.177000	1.041818
4.178000	1.027324
4.179000	1.103016
4.180000	1.239262
4.181000	1.405785
4.182000	1.582293
4.183000	1.740119
4.184000	1.897623
4.185000	2.058671
4.186000	2.176880
4.187000	2.200071
4.188000	2.127921
4.189000	2.076064
4.190000	1.968484
4.191000	1.869279
4.192000	1.783280
4.193000	1.690839
4.194000	1.567799
4.195000	1.472459
4.196000	1.432197
4.197000	1.448946
4.198000	1.374864
4.199000	1.293374
4.200000	1.307546
4.201000	1.362947
4.202000	1.441538
4.203000	1.515941
4.204000	1.558136
4.205000	1.623199
4.206000	1.711131
4.207000	1.721116
4.208000	1.616757
4.209000	1.615147
4.210000	1.601941
4.211000	1.452167
4.212000	1.254079
4.213000	1.129750
4.214000	1.126207
4.215000	1.235075
4.216000	1.339434
4.217000	1.486953
4.218000	1.656375
4.219000	1.848343
4.220000	1.928222
4.221000	1.855107
4.222000	1.733999
4.223000	1.670547
4.224000	1.654764
4.225000	1.636083
4.226000	1.616757
4.227000	1.620300
4.228000	1.593888
4.229000	1.534623
4.230000	1.539454
4.231000	1.520451
4.232000	1.524316
4.233000	1.594210
4.234000	1.714352
4.235000	1.782636
4.236000	1.735932
4.237000	1.657019
4.238000	1.634794
4.239000	1.537200
4.240000	1.400632
4.241000	1.245382
4.242000	1.179031
4.243000	1.165181
4.244000	1.202544
4.245000	1.222513
4.246000	1.272116
4.247000	1.378407
4.248000	1.496938
4.249000	1.537200
4.250000	1.598720
4.251000	1.584225
4.252000	1.618045
4.253000	1.733355
4.254000	1.785857
4.255000	1.744951
4.256000	1.727558
4.257000	1.760089
4.258000	1.755580
4.259000	1.763632
4.260000	1.852530
4.261000	1.871856
4.262000	1.877332
4.263000	1.963975
4.264000	1.980724
4.265000	1.910507
4.266000	1.765565
4.267000	1.557492
4.268000	1.439927
4.269000	1.360370
4.270000	1.318497
4.271000	1.324939
4.272000	1.362302
4.273000	1.409328
4.274000	1.424467
4.275000	1.474713
4.276000	1.578750
4.277000	1.630607
4.278000	1.549439
4.279000	1.491784
4.280000	1.453777
4.281000	1.423500
4.282000	1.341688
4.283000	1.281457
4.284000	1.278558
4.285000	1.314632
4.286000	1.443470
4.287000	1.667326
4.288000	1.920814
4.289000	2.120513
4.290000	2.088948
4.291000	1.881197
4.292000	1.698247
4.293000	1.581649
4.294000	1.473747
4.295000	1.509822
4.296000	1.597753
4.297000	1.539776
4.298000	1.380662
4.299000	1.269861
4.300000	1.242161
4.301000	1.283067
4.302000	1.359726
4.303000	1.450234
4.304000	1.621910
4.305000	1.820321
4.306000	1.911796
4.307000	1.962365
4.308000	1.969451
4.309000	1.819354
4.310000	1.605484
4.311000	1.475680
4.312000	1.402564
4.313000	1.416736
4.314000	1.458609
4.315000	1.467305
4.316000	1.437995
4.317000	1.377441
4.318000	1.375508
4.319000	1.429942
4.320000	1.476646
4.321000	1.525926
4.322000	1.658629
4.323000	1.713385
4.324000	1.703723
4.325000	1.673446
4.326000	1.639304
4.327000	1.587446
4.328000	1.505956
4.329000	1.392579
4.330000	1.323973
4.331000	1.384849
4.332000	1.464406
4.333000	1.567799
4.334000	1.654764
4.335000	1.693415
4.336000	1.728846
4.337000	1.728524
4.338000	1.800995
4.339000	1.799707
4.340000	1.744306
4.341000	1.639304
4.342000	1.497582
4.343000	1.374864
4.344000	1.326550
4.345000	1.231210
4.346000	1.212206
4.347000	1.209307
4.348000	1.225090
4.349000	1.313022
4.350000	1.396766
4.351000	1.428654
4.352000	1.449268
4.353000	1.471170
4.354000	1.540098
4.355000	1.675378
4.356000	1.823864
4.357000	1.934986
4.358000	2.111494
4.359000	2.254827
4.360000	2.267066
4.361000	2.134041
4.362000	1.910507
4.363000	1.595499
4.364000	1.360692
4.365000	1.275981
4.366000	1.214783
4.367000	1.222835
4.368000	1.339434
4.369000	1.487275
4.370000	1.619978
4.371000	1.672157
4.372000	1.723048
4.373000	1.724981
4.374000	1.548795
4.375000	1.350707
4.376000	1.270183
4.377000	1.256655
4.378000	1.297561
4.379000	1.390647
4.380000	1.537844
4.381000	1.693093
4.382000	1.801639
4.383000	1.846733
4.384000	1.936597
4.385000	1.978791
4.386000	1.885706
4.387000	1.672801
4.388000	1.388714
4.389000	1.185473
4.390000	1.062110
4.391000	0.997692
4.392000	1.012186
4.393000	1.087878
4.394000	1.208341
4.395000	1.422534
4.396000	1.727235
4.397000	2.052551
4.398000	2.334062
4.399000	2.371425
4.400000	2.184610
4.401000	1.794553
4.402000	1.539454
4.403000	1.475680
4.404000	1.441860
4.405000	1.403530
4.406000	1.367456
4.407000	1.364879
4.408000	1.395156
4.409000	1.468916
4.410000	1.501125
4.411000	1.495005
4.412000	1.492751
4.413000	1.508211
4.414000	1.542997
4.415000	1.542997
4.416000	1.525282
4.417000	1.623521
4.418000	1.707910
4.419000	1.716284
4.420000	1.722726
4.421000	1.765887
4.422000	1.841257
4.423000	1.873788
4.424000	1.835781
4.425000	1.754291
4.426000	1.621910
4.427000	1.547829
4.428000	1.520129
4.429000	1.461830
4.430000	1.358115
4.431000	1.213817
4.432000	1.182896
4.433000	1.239584
4.434000	1.336535
4.435000	1.406429
4.436000	1.449912
4.437000	1.537200
4.438000	1.628674
4.439000	1.664427
4.440000	1.670869
4.441000	1.641880
4.442000	1.516263
4.443000	1.315277
4.444000	1.227989
4.445000	1.217682
4.446000	1.348774
4.447000	1.584548
4.448000	1.846088
4.449000	2.016799
4.450000	2.108918
4.451000	2.138228
4.452000	2.090236
4.453000	1.934342
4.454000	1.732389
4.455000	1.548795
4.456000	1.515941
4.457000	1.582293
4.458000	1.600652
4.459000	1.519807
4.460000	1.476002
4.461000	1.502091
4.462000	1.504990
4.463000	1.463440
4.464000	1.370999
4.465000	1.264708
4.466000	1.228311
4.467000	1.257300
4.468000	1.292408
4.469000	1.382594
4.470000	1.523994
4.471000	1.567154
4.472000	1.462152
4.473000	1.416736
4.474000	1.503702
4.475000	1.706621
4.476000	1.800673
4.477000	1.818388
4.478000	1.766531
4.479000	1.706621
4.480000	1.611603
4.481000	1.568443
4.482000	1.553304
4.483000	1.488241
4.484000	1.490174
4.485000	1.599364
4.486000	1.737542
4.487000	1.884740
4.488000	1.910829
4.489000	1.732389
4.490000	1.544930
4.491000	1.480833
4.492000	1.480833
4.493000	1.517230
4.494000	1.564578
4.495000	1.576173
4.496000	1.638981
4.497000	1.707266
4.498000	1.714352
4.499000	1.586480
4.500000	1.503702
4.501000	1.399021
4.502000	1.337501
4.503000	1.333314
4.504000	1.349741
4.505000	1.432841
4.506000	1.574885
4.507000	1.723048
4.508000	1.835781
4.509000	1.684075
4.510000	1.455388
4.511000	1.394834
4.512000	1.426721
4.513000	1.402886
4.514000	1.432197
4.515000	1.506601
4.516000	1.511432
4.517000	1.344909
4.518000	1.127496
4.519000	1.030223
4.520000	1.090133
4.521000	1.280168
4.522000	1.495327
4.523000	1.748494
4.524000	2.080251
4.525000	2.226482
4.526000	2.048364
4.527000	1.729812
4.528000	1.529469
4.529000	1.455710
4.530000	1.435740
4.531000	1.454421
4.532000	1.437672
4.533000	1.469238
4.534000	1.505634
4.535000	1.494361
4.536000	1.535267
4.537000	1.569731
4.538000	1.598075
4.539000	1.631573
4.540000	1.730456
4.541000	1.902455
4.542000	2.026461
4.543000	2.108596
4.544000	2.153689
4.545000	2.175591
4.546000	2.127277
4.547000	1.995218
4.548000	1.797130
4.549000	1.649611
4.550000	1.497904
4.551000	1.362302
4.552000	1.242161
4.553000	1.192236
4.554000	1.171622
4.555000	1.204154
4.556000	1.251180
4.557000	1.384849
4.558000	1.413193
4.559000	1.405463
4.560000	1.367134
4.561000	1.362947
4.562000	1.415448
4.563000	1.486309
4.564000	1.537844
4.565000	1.542031
4.566000	1.455066
4.567000	1.370033
4.568000	1.403530
4.569000	1.529791
4.570000	1.592278
4.571000	1.592922
4.572000	1.585192
4.573000	1.652832
4.574000	1.701468
4.575000	1.675378
4.576000	1.720471
4.577000	1.689228
4.578000	1.669258
4.579000	1.680532
4.580000	1.676344
4.581000	1.587124
4.582000	1.548795
4.583000	1.617401
4.584000	1.765887
4.585000	1.842223
4.586000	1.814201
4.587000	1.792299
4.588000	1.785535
4.589000	1.724659
4.590000	1.607738
4.591000	1.438961
4.592000	1.328482
4.593000	1.246993
4.594000	1.228955
4.595000	1.217038
4.596000	1.167113
4.597000	1.236363
4.598000	1.438639
4.599000	1.611926
4.600000	1.651865
4.601000	1.629319
4.602000	1.647678
4.603000	1.693415
4.604000	1.677311
4.605000	1.627064
4.606000	1.564256
4.607000	1.501769
4.608000	1.470848
4.609000	1.515297
4.610000	1.654120
4.611000	1.867024
4.612000	1.985877
4.613000	1.947548
4.614000	1.852530
4.615000	1.677311
4.616000	1.385815
4.617000	1.197390
4.618000	1.132005
4.619000	1.192236
4.620000	1.312700
4.621000	1.437350
4.622000	1.597431
4.623000	1.835137
4.624000	2.040634
4.625000	2.160775
4.626000	2.262557
4.627000	2.300564
4.628000	2.175591
4.629000	1.930155
4.630000	1.688262
4.631000	1.576495
4.632000	1.577139
4.633000	1.575529
4.634000	1.534623
4.635000	1.465050
4.636000	1.408684
4.637000	1.305936
4.638000	1.217682
4.639000	1.184506
4.640000	1.221869
4.641000	1.238940
4.642000	1.207697
4.643000	1.289831
4.644000	1.456998
4.645000	1.473747
4.646000	1.327516
4.647000	1.224124
4.648000	1.210918
4.649000	1.238296
4.650000	1.256333
4.651000	1.235075
4.652000	1.249891
4.653000	1.322685
4.654000	1.451200
4.655000	1.583581
4.656000	1.783924
4.657000	1.935953
4.658000	1.916627
4.659000	1.845444
4.660000	1.817422
4.661000	1.740441
4.662000	1.614180
4.663000	1.477290
4.664000	1.361014
4.665000	1.280168
4.666000	1.186761
4.667000	1.193525
4.668000	1.268573
4.669000	1.323329
4.670000	1.365523
4.671000	1.448302
4.672000	1.688262
4.673000	2.030649
4.674000	2.337605
4.675000	2.407822
4.676000	2.406533
4.677000	2.400736
4.678000	2.335028
4.679000	2.213599
4.680000	1.965908
4.681000	1.739797
4.682000	1.721116
4.683000	1.639948
4.684000	1.296917
4.685000	0.952598
4.686000	0.846307
4.687000	0.916202
4.688000	1.017339
4.689000	1.165825
4.690000	1.409650
4.691000	1.622233
4.692000	1.740763
4.693000	1.806793
4.694000	1.827085
4.695000	1.777160
4.696000	1.667326
4.697000	1.549117
4.698000	1.492106
4.699000	1.543642
4.700000	1.671835
4.701000	1.741408
4.702000	1.693738
4.703000	1.679888
4.704000	1.809692
4.705000	1.985877
4.706000	1.960432
4.707000	1.814845
4.708000	1.669903
4.709000	1.616113
4.710000	1.638981
4.711000	1.498226
4.712000	1.482444
4.713000	1.480189
4.714000	1.424144
4.715000	1.361014
4.716000	1.258266
4.717000	1.170656
4.718000	1.100440
4.719000	1.106237
4.720000	1.159705
4.721000	1.193847
4.722000	1.178064
4.723000	1.196746
4.724000	1.275659
4.725000	1.358759
4.726000	1.413515
4.727000	1.436384
4.728000	1.424144
4.729000	1.441215
4.730000	1.589379
4.731000	1.848665
4.732000	1.931443
4.733000	1.956567
4.734000	1.915017
4.735000	1.783924
4.736000	1.757190
4.737000	1.745917
4.738000	1.685363
4.739000	1.726591
4.740000	1.882485
4.741000	1.803250
4.742000	1.564256
4.743000	1.541387
4.744000	1.603551
4.745000	1.607738
4.746000	1.595821
4.747000	1.694060
4.748000	1.753969
4.749000	1.869279
4.750000	2.057060
4.751000	2.240977
4.752000	2.299276
4.753000	2.009712
4.754000	1.628352
4.755000	1.359726
4.756000	1.165825
4.757000	1.101084
4.758000	1.152297
4.759000	1.246993
4.760000	1.334602
4.761000	1.466661
4.762000	1.548795
4.763000	1.575529
4.764000	1.506923
4.765000	1.465373
4.766000	1.587124
4.767000	1.829662
4.768000	1.807115
4.769000	1.551372
4.770000	1.351029
4.771000	1.313666
4.772000	1.309479
4.773000	1.319142
4.774000	1.358115
4.775000	1.442504
4.776000	1.542675
4.777000	1.416092
4.778000	1.183540
4.779000	1.048582
4.780000	1.135226
4.781000	1.278236
4.782000	1.392257
4.783000	1.487275
4.784000	1.511754
4.785000	1.497904
4.786000	1.486953
4.787000	1.495649
4.788000	1.452167
4.789000	1.429942
4.790000	1.484054
4.791000	1.630929
4.792000	1.824508
4.793000	2.020020
4.794000	2.092491
4.795000	2.155621
4.796000	2.182677
4.797000	2.134041
4.798000	2.003593
4.799000	1.825474
4.800000	1.641880
4.801000	1.487919
4.802000	1.390002
4.803000	1.337501
4.804000	1.343621
4.805000	1.389358
4.806000	1.460219
4.807000	1.466983
4.808000	1.409006
4.809000	1.413515
4.810000	1.502091
4.811000	1.586158
4.812000	1.588091
4.813000	1.608705
4.814000	1.598075
4.815000	1.519484
4.816000	1.392901
4.817000	1.280490
4.818000	1.300138
4.819000	1.290475
4.820000	1.246993
4.821000	1.208663
4.822000	1.283067
4.823000	1.470848
4.824000	1.675700
4.825000	1.800029
4.826000	1.862515
4.827000	1.787467
4.828000	1.681820
4.829000	1.609671
4.830000	1.537522
4.831000	1.516263
4.832000	1.588091
4.833000	1.483732
4.834000	1.410939
4.835000	1.448302
4.836000	1.591956
4.837000	1.805827
4.838000	1.943683
4.839000	2.027106
4.840000	2.123090
4.841000	2.154333
4.842000	2.066723
4.843000	1.937563
4.844000	1.873788
4.845000	1.729168
4.846000	1.393868
4.847000	1.245704
4.848000	1.201899
4.849000	1.289187
4.850000	1.428976
4.851000	1.474391
4.852000	1.602585
4.853000	1.857362
4.854000	2.041278
4.855000	1.969451
4.856000	1.781669
4.857000	1.631573
4.858000	1.517552
4.859000	1.312700
4.860000	1.167113
4.861000	1.118799
4.862000	1.147787
4.863000	1.101406
4.864000	1.105593
4.865000	1.183218
4.866000	1.297883
4.867000	1.388070
4.868000	1.437028
4.869000	1.560390
4.870000	1.658951
4.871000	1.830306
4.872000	1.944327
4.873000	2.008424
4.874000	2.053195
4.875000	2.040311
4.876000	2.025173
4.877000	1.898590
4.878000	1.834815
4.879000	1.786179
4.880000	1.757512
4.881000	1.676344
4.882000	1.617401
4.883000	1.528181
4.884000	1.421568
4.885000	1.429620
4.886000	1.531402
4.887000	1.756224
4.888000	1.599686
4.889000	1.390002
4.890000	1.447335
4.891000	1.562001
4.892000	1.518840
4.893000	1.339756
4.894000	1.221869
4.895000	1.164858
4.896000	1.117189
4.897000	1.078215
4.898000	1.060500
4.899000	1.099795
4.900000	1.124275
4.901000	1.158739
4.902000	1.214783
4.903000	1.213173
4.904000	1.309801
4.905000	1.465695
4.906000	1.541387
4.907000	1.531402
4.908000	1.464406
4.909000	1.384527
4.910000	1.438639
4.911000	1.586480
4.912000	1.830306
4.913000	2.061248
4.914000	2.190086
4.915000	2.250317
4.916000	2.215531
4.917000	2.233568
4.918000	2.243231
4.919000	2.198782
4.920000	1.993608
4.921000	1.657341
4.922000	1.408684
4.923000	1.201255
4.924000	1.028613
4.925000	0.947123
4.926000	0.948411
4.927000	1.032478
4.928000	1.088200
4.929000	1.224124
4.930000	1.416736
4.931000	1.593566
4.932000	1.694060
4.933000	1.690517
4.934000	1.612248
4.935000	1.533657
4.936000	1.599364
4.937000	1.812913
4.938000	2.181389
4.939000	2.192662
4.940000	2.063502
4.941000	2.037413
4.942000	1.884740
4.943000	1.726913
4.944000	1.656697
4.945000	1.694060
4.946000	1.734321
4.947000	1.811624
4.948000	1.784246
4.949000	1.771040
4.950000	1.710809
4.951000	1.567799
4.952000	1.581004
4.953000	1.749782
4.954000	1.770074
4.955000	1.664105
4.956000	1.504024
4.957000	1.298528
4.958000	1.177742
4.959000	1.072095
4.960000	0.977077
4.961000	0.922966
4.962000	0.929730
4.963000	1.007032
4.964000	1.113001
4.965000	1.287899
4.966000	1.427688
4.967000	1.547507
4.968000	1.706621
4.969000	1.857040
4.970000	1.867991
4.971000	1.867991
4.972000	1.925002
4.973000	1.970739
4.974000	2.030971
4.975000	2.130498
4.976000	2.165606
4.977000	2.042888
4.978000	1.803894
4.979000	1.576495
4.980000	1.310445
4.981000	1.221547
4.982000	1.239584
4.983000	1.255689
4.984000	1.221225
4.985000	1.165181
4.986000	1.136192
4.987000	1.176776
4.988000	1.308835
4.989000	1.425433
4.990000	1.504668
4.991000	1.594855
4.992000	1.603551
4.993000	1.533657
4.994000	1.438639
4.995000	1.347808
4.996000	1.283389
4.997000	1.328160
4.998000	1.485342
4.999000	1.850920
5.000000	2.223583
5.001000	2.372069
5.002000	2.387852
5.003000	2.285748
5.004000	2.065435
5.005000	1.842223
5.006000	1.575529
5.007000	1.374542
5.008000	1.123952
5.009000	1.042785
5.010000	1.217038
5.011000	1.452489
5.012000	1.671513
5.013000	1.785535
5.014000	1.838358
5.015000	1.920492
5.016000	1.960432
5.017000	1.944327
5.018000	1.877654
5.019000	1.715962
5.020000	1.504990
5.021000	1.426077
5.022000	1.511754
5.023000	1.576173
5.024000	1.564256
5.025000	1.484698
5.026000	1.387426
5.027000	1.376152
5.028000	1.476968
5.029000	1.548151
5.030000	1.534623
5.031000	1.513365
5.032000	1.652509
5.033000	1.965908
5.034000	2.193951
5.035000	2.276085
5.036000	2.267710
5.037000	2.103120
5.038000	1.904710
5.039000	1.676022
5.040000	1.342010
5.041000	1.056313
5.042000	0.807978
5.043000	0.710061
5.044000	0.726166
5.045000	0.838255
5.046000	1.057279
5.047000	1.352317
5.048000	1.695348
5.049000	2.000372
5.050000	2.128565
5.051000	2.051907
5.052000	1.918560
5.053000	1.854141
5.054000	2.035158
5.055000	2.113749
5.056000	2.104086
5.057000	2.214243
5.058000	2.302819
5.059000	2.331807
5.060000	2.205224
5.061000	1.915661
5.062000	1.652832
5.063000	1.143278
5.064000	0.788974
5.065000	0.766428
5.066000	0.889146
5.067000	0.910404
5.068000	0.932951
5.069000	1.039564
5.070000	1.225090
5.071000	1.537200
5.072000	1.901489
5.073000	2.231636
5.074000	2.421350
5.075000	2.492211
5.076000	2.495110
5.077000	2.468054
5.078000	2.140805
5.079000	1.535911
5.080000	1.137803
5.081000	0.981909
5.082000	1.079503
5.083000	1.241517
5.084000	1.463118
5.085000	1.800673
5.086000	2.007780
5.087000	2.065113
5.088000	1.967518
5.089000	1.750748
5.090000	1.465695
5.091000	1.139091
5.092000	0.966126
5.093000	0.853393
5.094000	0.864344
5.095000	0.928119
5.096000	0.991894
5.097000	1.079826
5.098000	1.082724
5.099000	1.088522
5.100000	1.159061
5.101000	1.330093
5.102000	1.473425
5.103000	1.592922
5.104000	1.751715
5.105000	1.838358
5.106000	1.880875
5.107000	1.875077
5.108000	1.794231
5.109000	1.647678
5.110000	1.557169
5.111000	1.402886
5.112000	1.433807
5.113000	1.454421
5.114000	1.484054
5.115000	1.634472
5.116000	1.740119
5.117000	1.798740
5.118000	2.035480
5.119000	2.233568
5.120000	2.250317
5.121000	2.245808
5.122000	2.271254
5.123000	2.183966
5.124000	2.020986
5.125000	1.831916
5.126000	1.473425
5.127000	1.141023
5.128000	1.089166
5.129000	1.273726
5.130000	1.447657
5.131000	1.517230
5.132000	1.564578
5.133000	1.572952
5.134000	1.533012
5.135000	1.648322
5.136000	1.862193
5.137000	1.936919
5.138000	1.777482
5.139000	1.473425
5.140000	1.267929
5.141000	1.147787
5.142000	1.159383
5.143000	1.367778
5.144000	1.546218
5.145000	1.629319
5.146000	1.594210
5.147000	1.520451
5.148000	1.416092
5.149000	1.282423
5.150000	1.348452
5.151000	1.496294
5.152000	1.729812
5.153000	1.970095
5.154000	2.167217
5.155000	2.218752
5.156000	2.095068
5.157000	1.863804
5.158000	1.579394
5.159000	1.205764
5.160000	1.004778
5.161000	0.997692
5.162000	1.040852
5.163000	1.062755
5.164000	1.143600
5.165000	1.210596
5.166000	1.272438
5.167000	1.459575
5.168000	1.686974
5.169000	1.791010
5.170000	1.839646
5.171000	1.847377
5.172000	1.829339
5.173000	1.885062
5.174000	1.963331
5.175000	2.122768
5.176000	2.071233
5.177000	2.025495
5.178000	2.011001
5.179000	1.987810
5.180000	1.912118
5.181000	1.793587
5.182000	1.412227
5.183000	1.001235
5.184000	0.924898
5.185000	1.135548
5.186000	1.577784
5.187000	1.980080
5.188000	2.230025
5.189000	2.288647
5.190000	2.252894
5.191000	2.110206
5.192000	1.781025
5.193000	1.449912
5.194000	0.962583
5.195000	0.877872
5.196000	1.005100
5.197000	1.168079
5.198000	1.320752
5.199000	1.433163
5.200000	1.414804
5.201000	1.309479
5.202000	1.212851
5.203000	1.256655
5.204000	1.307868
5.205000	1.248281
5.206000	1.192236
5.207000	1.165825
5.208000	1.233465
5.209000	1.312700
5.210000	1.425111
5.211000	1.548473
5.212000	1.691161
5.213000	1.849953
5.214000	1.933054
5.215000	2.102154
5.216000	2.293478
5.217000	2.335350
5.218000	2.259980
5.219000	2.003271
5.220000	1.666360
5.221000	1.483410
5.222000	1.384205
5.223000	1.320752
5.224000	1.274693
5.225000	1.230566
5.226000	1.267284
5.227000	1.382594
5.228000	1.430586
5.229000	1.466017
5.230000	1.466661
5.231000	1.470526
5.232000	1.577139
5.233000	1.693415
5.234000	1.736254
5.235000	1.544286
5.236000	1.371643
5.237000	1.201255
5.238000	1.147143
5.239000	1.222513
5.240000	1.436384
5.241000	1.674090
5.242000	1.861871
5.243000	1.966552
5.244000	2.000372
5.245000	1.946582
5.246000	1.777160
5.247000	1.585514
5.248000	1.409972
5.249000	1.351995
5.250000	1.367456
5.251000	1.404819
5.252000	1.389680
5.253000	1.407718
5.254000	1.497904
5.255000	1.641558
5.256000	1.747849
5.257000	1.627708
5.258000	1.657985
5.259000	1.784890
5.260000	1.897623
5.261000	2.028394
5.262000	2.145636
5.263000	2.230025
5.264000	2.297343
5.265000	2.335995
5.266000	2.324077
5.267000	2.077674
5.268000	1.829017
5.269000	1.590023
5.270000	1.377119
5.271000	1.391935
5.272000	1.576495
5.273000	1.664749
5.274000	1.347808
5.275000	1.184506
5.276000	1.134904
5.277000	1.266318
5.278000	1.414482
5.279000	1.500159
5.280000	1.518196
5.281000	1.351029
5.282000	1.304647
5.283000	1.332025
5.284000	1.282745
5.285000	1.042141
5.286000	1.044073
5.287000	1.160671
5.288000	1.283711
5.289000	1.487919
5.290000	1.591956
5.291000	1.601296
5.292000	1.762344
5.293000	1.846410
5.294000	1.790688
5.295000	1.625776
5.296000	1.411583
5.297000	1.250213
5.298000	1.193847
5.299000	1.413193
5.300000	1.764920
5.301000	1.984911
5.302000	1.990065
5.303000	1.884740
5.304000	1.732389
5.305000	1.581004
5.306000	1.433485
5.307000	1.298528
5.308000	1.250536
5.309000	1.278236
5.310000	1.442504
5.311000	1.866702
5.312000	2.326654
5.313000	2.411365
5.314000	2.358541
5.315000	2.206190
5.316000	1.880230
5.317000	1.493717
5.318000	1.105593
5.319000	0.874329
5.320000	0.752900
5.321000	0.807978
5.322000	0.918456
5.323000	1.040208
5.324000	1.149720
5.325000	1.227023
5.326000	1.389358
5.327000	1.644779
5.328000	1.855429
5.329000	1.920170
5.330000	1.999405
5.331000	2.137262
5.332000	2.175591
5.333000	2.015832
5.334000	1.834815
5.335000	1.666682
5.336000	1.610959
5.337000	1.531402
5.338000	1.498548
5.339000	1.781669
5.340000	2.106985
5.341000	2.265134
5.342000	2.317313
5.343000	2.207157
5.344000	1.949159
5.345000	1.657019
5.346000	1.368100
5.347000	1.152619
5.348000	0.971280
5.349000	0.906539
5.350000	0.958396
5.351000	1.102694
5.352000	1.334924
5.353000	1.700179
5.354000	2.139839
5.355000	2.409110
5.356000	2.478039
5.357000	2.474173
5.358000	2.408144
5.359000	1.967518
5.360000	1.381628
5.361000	1.032156
5.362000	0.958718
5.363000	0.902996
5.364000	0.989639
5.365000	1.095930
5.366000	1.154551
5.367000	1.084979
5.368000	1.039564
5.369000	1.068230
5.370000	1.072739
5.371000	1.184506
5.372000	1.294663
5.373000	1.268573
5.374000	1.129428
5.375000	1.164858
5.376000	1.274048
5.377000	1.340078
5.378000	1.443470
5.379000	1.583903
5.380000	1.681498
5.381000	1.749460
5.382000	1.752037
5.383000	1.673124
5.384000	1.600652
5.385000	1.583259
5.386000	1.620300
5.387000	1.711453
5.388000	1.735288
5.389000	1.736576
5.390000	1.699535
5.391000	1.711775
5.392000	1.755902
5.393000	1.773295
5.394000	1.648000
5.395000	1.462152
5.396000	1.330737
5.397000	1.317853
5.398000	1.264386
5.399000	1.273082
5.400000	1.545896
5.401000	1.846410
5.402000	2.059637
5.403000	2.220363
5.404000	2.345980
5.405000	2.403313
5.406000	2.372713
5.407000	2.248385
5.408000	2.154977
5.409000	2.044177
5.410000	1.852530
5.411000	1.599042
5.412000	1.288221
5.413000	1.089166
5.414000	1.117511
5.415000	1.282423
5.416000	1.460863
5.417000	1.634794
5.418000	1.725625
5.419000	1.727558
5.420000	1.646712
5.421000	1.580038
5.422000	1.421246
5.423000	1.158094
5.424000	1.036665
5.425000	0.988029
5.426000	1.019594
5.427000	1.058245
5.428000	1.090777
5.429000	1.397733
5.430000	1.778126
5.431000	2.130498
5.432000	2.361440
5.433000	2.390751
5.434000	2.331807
5.435000	2.224550
5.436000	2.036124
5.437000	1.692127
5.438000	1.295307
5.439000	1.064365
5.440000	1.003489
5.441000	1.055668
5.442000	1.118477
5.443000	1.101728
5.444000	1.011219
5.445000	1.017661
5.446000	1.141023
5.447000	1.322363
5.448000	1.456676
5.449000	1.632218
5.450000	1.809047
5.451000	1.986844
5.452000	2.209733
5.453000	2.314414
5.454000	2.245164
5.455000	2.084438
5.456000	1.909219
5.457000	1.734321
5.458000	1.564256
5.459000	1.423500
5.460000	1.254401
5.461000	1.134260
5.462000	1.152941
5.463000	1.222513
5.464000	1.275659
5.465000	1.240229
5.466000	1.238940
5.467000	1.330093
5.468000	1.405463
5.469000	1.453133
5.470000	1.539776
5.471000	1.645745
5.472000	1.790366
5.473000	2.072843
5.474000	2.340182
5.475000	2.429402
5.476000	2.436810
5.477000	2.389462
5.478000	2.246774
5.479000	1.894725
5.480000	1.503380
5.481000	1.222513
5.482000	1.157450
5.483000	1.180963
5.484000	1.309157
5.485000	1.535911
5.486000	1.676022
5.487000	1.623843
5.488000	1.498870
5.489000	1.399987
5.490000	1.315277
5.491000	1.356505
5.492000	1.520451
5.493000	1.714996
5.494000	1.814845
5.495000	1.838358
5.496000	1.764598
5.497000	1.615469
5.498000	1.340400
5.499000	1.199000
5.500000	1.147787
5.501000	1.247637
5.502000	1.514009
5.503000	1.781347
5.504000	1.932410
5.505000	1.964941
5.506000	1.801961
5.507000	1.560068
5.508000	1.342977
5.509000	1.027968
5.510000	0.920711
5.511000	1.194169
5.512000	1.626742
5.513000	2.013900
5.514000	2.078319
5.515000	1.906964
5.516000	1.632540
5.517000	1.370999
5.518000	1.039242
5.519000	0.916846
5.520000	1.077571
5.521000	1.303359
5.522000	1.405141
5.523000	1.418669
5.524000	1.369066
5.525000	1.435096
5.526000	1.537522
5.527000	1.805504
5.528000	2.168827
5.529000	2.363695
5.530000	2.404601
5.531000	2.373036
5.532000	2.142093
5.533000	1.815811
5.534000	1.449912
5.535000	1.058245
5.536000	0.870142
5.537000	0.891723
5.538000	1.007354
5.539000	1.117189
5.540000	1.251502
5.541000	1.413837
5.542000	1.577784
5.543000	1.698247
5.544000	1.698247
5.545000	1.632862
5.546000	1.660562
5.547000	1.693415
5.548000	1.784568
5.549000	1.821609
5.550000	1.808403
5.551000	1.744629
5.552000	1.561035
5.553000	1.424789
5.554000	1.424144
5.555000	1.565222
5.556000	1.629641
5.557000	1.598720
5.558000	1.479223
5.559000	1.356505
5.560000	1.348774
5.561000	1.438639
5.562000	1.495005
5.563000	1.560713
5.564000	1.618045
5.565000	1.640914
5.566000	1.672157
5.567000	1.774583
5.568000	1.774905
5.569000	1.763632
5.570000	1.835137
5.571000	1.885384
5.572000	1.989420
5.573000	2.086049
5.574000	1.953668
5.575000	1.972349
5.576000	2.082828
5.577000	2.004881
5.578000	1.822575
5.579000	1.592600
5.580000	1.363591
5.581000	1.384849
5.582000	1.405141
5.583000	1.418347
5.584000	1.497582
5.585000	1.530758
5.586000	1.567154
5.587000	1.566832
5.588000	1.395478
5.589000	1.143600
5.590000	0.968059
5.591000	0.939715
5.592000	0.907183
5.593000	0.904284
5.594000	0.944546
5.595000	1.122342
5.596000	1.577139
5.597000	2.246130
5.598000	2.474496
5.599000	2.496398
5.600000	2.495110
5.601000	2.455492
5.602000	2.199426
5.603000	1.758801
5.604000	1.378085
5.605000	1.142312
5.606000	1.240229
5.607000	1.324295
5.608000	1.430586
5.609000	1.481799
5.610000	1.485020
5.611000	1.477934
5.612000	1.605162
5.613000	1.561357
5.614000	1.530758
5.615000	1.602263
5.616000	1.870568
5.617000	1.997151
5.618000	1.753325
5.619000	1.377441
5.620000	1.129750
5.621000	1.016373
5.622000	1.056635
5.623000	1.215105
5.624000	1.399665
5.625000	1.526571
5.626000	1.646390
5.627000	1.883451
5.628000	1.945616
5.629000	1.714674
5.630000	1.706299
5.631000	1.858650
5.632000	1.935631
5.633000	1.833849
5.634000	1.525604
5.635000	1.276625
5.636000	1.265674
5.637000	1.357793
5.638000	1.245060
5.639000	0.986740
5.640000	0.954209
5.641000	1.089488
5.642000	1.271472
5.643000	1.473747
5.644000	1.706943
5.645000	1.892792
5.646000	2.068012
5.647000	2.231636
5.648000	2.373358
5.649000	2.351777
5.650000	2.119547
5.651000	1.639626
5.652000	1.410939
5.653000	1.499192
5.654000	1.692771
5.655000	1.869601
5.656000	1.694060
5.657000	1.498548
5.658000	1.258910
5.659000	1.039564
5.660000	0.946156
5.661000	0.903640
5.662000	0.964194
5.663000	1.156484
5.664000	1.316565
5.665000	1.453455
5.666000	1.565222
5.667000	1.587124
5.668000	1.533657
5.669000	1.477290
5.670000	1.433163
5.671000	1.396444
5.672000	1.326228
5.673000	1.360048
5.674000	1.719183
5.675000	2.163030
5.676000	2.316347
5.677000	2.360152
5.678000	2.372713
5.679000	2.323755
5.680000	2.201681
5.681000	2.053839
5.682000	1.921781
5.683000	1.800351
5.684000	1.554915
5.685000	1.400954
5.686000	1.192236
5.687000	1.084335
5.688000	1.068552
5.689000	1.188371
5.690000	1.349741
5.691000	1.420279
5.692000	1.343299
5.693000	1.176132
5.694000	0.969025
5.695000	0.914913
5.696000	1.020238
5.697000	1.195780
5.698000	1.533657
5.699000	1.915017
5.700000	2.143060
5.701000	2.151756
5.702000	1.907931
5.703000	1.672801
5.704000	1.557169
5.705000	1.481799
5.706000	1.498226
5.707000	1.655086
5.708000	1.749460
5.709000	1.927900
5.710000	1.903421
5.711000	1.618690
5.712000	1.387104
5.713000	1.261165
5.714000	1.152941
5.715000	1.109136
5.716000	1.057601
5.717000	1.107848
5.718000	1.305936
5.719000	1.525282
5.720000	1.657985
5.721000	1.636083
5.722000	1.583903
5.723000	1.641236
5.724000	1.733677
5.725000	1.633828
5.726000	1.448946
5.727000	1.372287
5.728000	1.428010
5.729000	1.674090
5.730000	1.907931
5.731000	2.023885
5.732000	2.157232
5.733000	2.280272
5.734000	2.358863
5.735000	2.416196
5.736000	2.336317
5.737000	2.087015
5.738000	1.779415
5.739000	1.580360
5.740000	1.286288
5.741000	1.071773
5.742000	1.037309
5.743000	0.975789
5.744000	0.927475
5.745000	0.994148
5.746000	1.068552
5.747000	1.100118
5.748000	1.179031
5.749000	1.508855
5.750000	2.008424
5.751000	2.321822
5.752000	2.446795
5.753000	2.497686
5.754000	2.496398
5.755000	2.500263
5.756000	2.452593
5.757000	2.011001
5.758000	1.504346
5.759000	1.229599
5.760000	0.979654
5.761000	0.805723
5.762000	0.939392
5.763000	1.088522
5.764000	1.299172
5.765000	1.428332
5.766000	1.353606
5.767000	1.153907
5.768000	1.083369
5.769000	1.107204
5.770000	1.154551
5.771000	1.072095
5.772000	1.038275
5.773000	1.047938
5.774000	1.189982
5.775000	1.437672
5.776000	1.697925
5.777000	2.078319
5.778000	2.344691
5.779000	2.411043
5.780000	2.394938
5.781000	2.321822
5.782000	2.062536
5.783000	1.791976
5.784000	1.491140
5.785000	1.264708
5.786000	1.113001
5.787000	1.112357
5.788000	1.110102
5.789000	1.113968
5.790000	1.130394
5.791000	1.140701
5.792000	1.126207
5.793000	1.096252
5.794000	1.088844
5.795000	1.327516
5.796000	1.574885
5.797000	1.635761
5.798000	1.672157
5.799000	1.666682
5.800000	1.625776
5.801000	1.539132
5.802000	1.459897
5.803000	1.515297
5.804000	1.703400
5.805000	2.046431
5.806000	2.308939
5.807000	2.339216
5.808000	2.394938
5.809000	2.437132
5.810000	2.436166
5.811000	2.346624
5.812000	2.054484
5.813000	1.554271
5.814000	1.032478
5.815000	0.854682
5.816000	0.812809
5.817000	0.860157
5.818000	0.993826
5.819000	1.188049
5.820000	1.412549
5.821000	1.489530
5.822000	1.495327
5.823000	1.486309
5.824000	1.459253
5.825000	1.715640
5.826000	2.218430
5.827000	2.446151
5.828000	2.406211
5.829000	2.048364
5.830000	1.519807
5.831000	1.241839
5.832000	1.151653
5.833000	1.168402
5.834000	1.231210
5.835000	1.575529
5.836000	1.989098
5.837000	2.146281
5.838000	2.047398
5.839000	1.780381
5.840000	1.544286
5.841000	1.373576
5.842000	1.225090
5.843000	1.330093
5.844000	1.507889
5.845000	1.819677
5.846000	2.206190
5.847000	2.312482
5.848000	2.340826
5.849000	2.373358
5.850000	2.027106
5.851000	1.365523
5.852000	1.039242
5.853000	1.203832
5.854000	1.506601
5.855000	1.843512
5.856000	1.961076
5.857000	1.836748
5.858000	1.618690
5.859000	1.311411
5.860000	1.112357
5.861000	0.946156
5.862000	0.903962
5.863000	0.931018
5.864000	1.031834
5.865000	1.120409
5.866000	1.196424
5.867000	1.378085
5.868000	1.764276
5.869000	2.050619
5.870000	2.068978
5.871000	1.980402
5.872000	1.808725
5.873000	1.625131
5.874000	1.512076
5.875000	1.602263
5.876000	1.970417
5.877000	2.308617
5.878000	2.373358
5.879000	2.334706
5.880000	2.100543
5.881000	1.679243
5.882000	1.197068
5.883000	1.041496
5.884000	1.074350
5.885000	1.294018
5.886000	1.424467
5.887000	1.460541
5.888000	1.505312
5.889000	1.438317
5.890000	1.310123
5.891000	1.346842
5.892000	1.600974
5.893000	2.102154
5.894000	2.445507
5.895000	2.494465
5.896000	2.427470
5.897000	2.027428
5.898000	1.669903
5.899000	1.248281
5.900000	0.973857
5.901000	1.038275
5.902000	1.294663
5.903000	1.558136
5.904000	1.683753
5.905000	1.688262
5.906000	1.594532
5.907000	1.627064
5.908000	1.809370
5.909000	1.855107
5.910000	1.827729
5.911000	1.624809
5.912000	1.502736
5.913000	1.308190
5.914000	1.240551
5.915000	1.198678
5.916000	1.181929
5.917000	1.306258
5.918000	1.524960
5.919000	1.715962
5.920000	1.916305
5.921000	1.975893
5.922000	1.813557
5.923000	1.674734
5.924000	1.387104
5.925000	1.119443
5.926000	0.998658
5.927000	0.919423
5.928000	1.037631
5.929000	1.271472
5.930000	1.532046
5.931000	1.627064
5.932000	1.782314
5.933000	2.006492
5.934000	2.125667
5.935000	2.136296
5.936000	2.099899
5.937000	1.880875
5.938000	1.593888
5.939000	1.384849
5.940000	1.346842
5.941000	1.317853
5.942000	1.338467
5.943000	1.316887
5.944000	1.253757
5.945000	1.256011
5.946000	1.295307
5.947000	1.335246
5.948000	1.444114
5.949000	1.858972
5.950000	2.262235
5.951000	2.381088
5.952000	2.260946
5.953000	1.960754
5.954000	1.616113
5.955000	1.223802
5.956000	0.993182
5.957000	0.980621
5.958000	1.242483
5.959000	1.539132
5.960000	1.786179
5.961000	1.812590
5.962000	1.822575
5.963000	1.953024
5.964000	2.024529
5.965000	1.840613
5.966000	1.598075
5.967000	1.649289
5.968000	1.696314
5.969000	1.650899
5.970000	1.533657
5.971000	1.459897
5.972000	1.584870
5.973000	2.014544
5.974000	2.410721
5.975000	2.485125
5.976000	2.489634
5.977000	2.409110
5.978000	2.015510
5.979000	1.536233
5.980000	1.182896
5.981000	1.104305
5.982000	1.025070
5.983000	1.060500
5.984000	1.052448
5.985000	1.126207
5.986000	1.231532
5.987000	1.305614
5.988000	1.431553
5.989000	1.493395
5.990000	1.514975
5.991000	1.500159
5.992000	1.399665
5.993000	1.148432
5.994000	1.041496
5.995000	1.005744
5.996000	0.996403
5.997000	1.121698
5.998000	1.387748
5.999000	1.877654
6.000000	2.127599
6.001000	2.088626
6.002000	2.057383
6.003000	2.084761
6.004000	2.032259
6.005000	2.251606
6.006000	2.226482
6.007000	2.076708
6.008000	1.945294
6.009000	1.846088
6.010000	1.737542
6.011000	1.472781
6.012000	1.212851
6.013000	1.185150
6.014000	1.290153
6.015000	1.388070
6.016000	1.460863
6.017000	1.495327
6.018000	1.376474
6.019000	1.379373
6.020000	1.359403
6.021000	1.364557
6.022000	1.631895
6.023000	2.071233
6.024000	2.207157
6.025000	1.939818
6.026000	1.716284
6.027000	1.533657
6.028000	1.359081
6.029000	1.175810
6.030000	1.255367
6.031000	1.381306
6.032000	2.094423
6.033000	2.492855
6.034000	2.766958
6.035000	2.767602
6.036000	2.765992
6.037000	2.445829
6.038000	1.647678
6.039000	1.149398
6.040000	0.858547
6.041000	0.745814
6.042000	0.787686
6.043000	0.838899
6.044000	0.869176
6.045000	0.899131
6.046000	1.007354
6.047000	1.380340
6.048000	1.758479
6.049000	1.874755
6.050000	2.002304
6.051000	2.092813
6.052000	2.133397
6.053000	2.220685
6.054000	1.955923
6.055000	1.537844
6.056000	1.419635
6.057000	1.307224
6.058000	1.265996
6.059000	1.172267
6.060000	1.143278
6.061000	1.245382
6.062000	1.259232
6.063000	1.125563
6.064000	1.021204
6.065000	1.066620
6.066000	1.134582
6.067000	1.368744
6.068000	1.739475
6.069000	1.885706
6.070000	1.912440
6.071000	2.028394
6.072000	2.035480
6.073000	2.020664
6.074000	1.967196
6.075000	1.657341
6.076000	1.442504
6.077000	1.179675
6.078000	0.921999
6.079000	0.882382
6.080000	0.906539
6.081000	1.006710
6.082000	1.307224
6.083000	1.725947
6.084000	2.114715
6.085000	2.396871
6.086000	2.496076
6.087000	2.497042
6.088000	2.482548
6.089000	2.405889
6.090000	2.221329
6.091000	1.718539
6.092000	1.216394
6.093000	0.924898
6.094000	0.812487
6.095000	0.943580
6.096000	1.180319
6.097000	1.299172
6.098000	1.451845
6.099000	1.588735
6.100000	1.788755
6.101000	1.938852
6.102000	1.994574
6.103000	1.918882
6.104000	2.083794
6.105000	2.207801
6.106000	2.187831
6.107000	2.223583
6.108000	2.166251
6.109000	2.243553
6.110000	2.196850
6.111000	1.761377
6.112000	1.323973
6.113000	1.104627
6.114000	1.046650
6.115000	1.044395
6.116000	1.150364
6.117000	1.304647
6.118000	1.398377
6.119000	1.470204
6.120000	1.386137
6.121000	1.471170
6.122000	1.560068
6.123000	1.633828
6.124000	1.554593
6.125000	1.438639
6.126000	1.400632
6.127000	1.238296
6.128000	1.133293
6.129000	1.177098
6.130000	1.198356
6.131000	1.206731
6.132000	1.223480
6.133000	1.392579
6.134000	1.584225
6.135000	1.695026
6.136000	1.614502
6.137000	1.567477
6.138000	1.621910
6.139000	1.576817
6.140000	1.253757
6.141000	1.146499
6.142000	1.098185
6.143000	1.167435
6.144000	1.210596
6.145000	1.261809
6.146000	1.352639
6.147000	1.523994
6.148000	1.915661
6.149000	2.234213
6.150000	2.279628
6.151000	2.087659
6.152000	1.721760
6.153000	1.492428
6.154000	1.377441
6.155000	1.332025
6.156000	1.389036
6.157000	1.601296
6.158000	1.542353
6.159000	1.329127
6.160000	1.301749
6.161000	1.303037
6.162000	1.387104
6.163000	1.537844
6.164000	1.676667
6.165000	1.436706
6.166000	1.304647
6.167000	1.510466
6.168000	2.056738
6.169000	2.415230
6.170000	2.489956
6.171000	2.486091
6.172000	2.450983
6.173000	2.360474
6.174000	1.981368
6.175000	1.376797
6.176000	1.118477
6.177000	1.196102
6.178000	1.337823
6.179000	1.559746
6.180000	1.658307
6.181000	1.616113
6.182000	1.403208
6.183000	1.244094
6.184000	1.303037
6.185000	1.395478
6.186000	1.470526
6.187000	1.364557
6.188000	1.203510
6.189000	1.060822
6.190000	0.997047
6.191000	0.978366
6.192000	1.123630
6.193000	1.429620
6.194000	1.754613
6.195000	2.017443
6.196000	1.959144
6.197000	1.874433
6.198000	1.763310
6.199000	1.652832
6.200000	1.498548
6.201000	1.450556
6.202000	1.643169
6.203000	1.831916
6.204000	2.020986
6.205000	2.123734
6.206000	1.943683
6.207000	1.492428
6.208000	1.198678
6.209000	1.014440
6.210000	0.940359
6.211000	0.934561
6.212000	1.046006
6.213000	1.183218
6.214000	1.353928
6.215000	1.343299
6.216000	1.241839
6.217000	1.222191
6.218000	1.156484
6.219000	1.213173
6.220000	1.495649
6.221000	1.919526
6.222000	2.230670
6.223000	2.403313
6.224000	2.341148
6.225000	2.188475
6.226000	2.110206
6.227000	1.911151
6.228000	1.670869
6.229000	1.428332
6.230000	1.308190
6.231000	1.405141
6.232000	1.826763
6.233000	2.194595
6.234000	2.377867
6.235000	2.315703
6.236000	2.048364
6.237000	1.584548
6.238000	1.021849
6.239000	0.814098
6.240000	0.804435
6.241000	0.948089
6.242000	1.414482
6.243000	2.194273
6.244000	2.475140
6.245000	2.480293
6.246000	2.401380
6.247000	1.987166
6.248000	1.610959
6.249000	1.473747
6.250000	1.705655
6.251000	1.947226
6.252000	1.927900
6.253000	1.932410
6.254000	1.744306
6.255000	1.487275
6.256000	1.222191
6.257000	0.879805
6.258000	0.769005
6.259000	1.009931
6.260000	1.240551
6.261000	1.456354
6.262000	1.682142
6.263000	1.649289
6.264000	1.477934
6.265000	1.311089
6.266000	1.103983
6.267000	0.978044
6.268000	0.977077
6.269000	1.058889
6.270000	1.139413
6.271000	1.242483
6.272000	1.415448
6.273000	1.575207
6.274000	1.690839
6.275000	1.666360
6.276000	1.610315
6.277000	1.601619
6.278000	1.587768
6.279000	1.563289
6.280000	1.477612
6.281000	1.483088
6.282000	1.558780
6.283000	1.678599
6.284000	1.831594
6.285000	1.966552
6.286000	2.018409
6.287000	2.129854
6.288000	2.052229
6.289000	1.810980
