LabVIEW Measurement	
Writer_Version	2
Reader_Version	2
Separator	Tab
Decimal_Separator	.
Multi_Headings	Yes
X_Columns	One
Time_Pref	Relative
Operator	bjl40
Description	Time Domain Data
Date	1903/12/31
Time	19:00:00
***End_of_Header***	
	
Channels	1	
Samples	15000	
Date	1903/12/31	
Time	19:00:00	
X_Dimension	Time	
X0	0.0000000000000000E+0	
Delta_X	0.001000	
***End_of_Header***		
X_Value	Untitled	Comment
0.000000	1.558136	Tare Values:0.000000, 0.000000, 0.000000, 0.000000\0D\0A
0.001000	1.550406
0.002000	1.544608
0.003000	1.534301
0.004000	1.528825
0.005000	1.528825
0.006000	1.531080
0.007000	1.530436
0.008000	1.544286
0.009000	1.547829
0.010000	1.556203
0.011000	1.570375
0.012000	1.576495
0.013000	1.586480
0.014000	1.588735
0.015000	1.586158
0.016000	1.576817
0.017000	1.560068
0.018000	1.546862
0.019000	1.545896
0.020000	1.527859
0.021000	1.523350
0.022000	1.532046
0.023000	1.531080
0.024000	1.533979
0.025000	1.546540
0.026000	1.553304
0.027000	1.558136
0.028000	1.572308
0.029000	1.579394
0.030000	1.584225
0.031000	1.581004
0.032000	1.576495
0.033000	1.562001
0.034000	1.547829
0.035000	1.537200
0.036000	1.532368
0.037000	1.530436
0.038000	1.530114
0.039000	1.526248
0.040000	1.537844
0.041000	1.538488
0.042000	1.546540
0.043000	1.551694
0.044000	1.566188
0.045000	1.571020
0.046000	1.579716
0.047000	1.581327
0.048000	1.579716
0.049000	1.576495
0.050000	1.560068
0.051000	1.549117
0.052000	1.537522
0.053000	1.534301
0.054000	1.525604
0.055000	1.529469
0.056000	1.535589
0.057000	1.542031
0.058000	1.549761
0.059000	1.557814
0.060000	1.560713
0.061000	1.572308
0.062000	1.583581
0.063000	1.584870
0.064000	1.581649
0.065000	1.583581
0.066000	1.571664
0.067000	1.559102
0.068000	1.549439
0.069000	1.540098
0.070000	1.538166
0.071000	1.536555
0.072000	1.534623
0.073000	1.534623
0.074000	1.549439
0.075000	1.550728
0.076000	1.559424
0.077000	1.566832
0.078000	1.578106
0.079000	1.584870
0.080000	1.588091
0.081000	1.587124
0.082000	1.577784
0.083000	1.563611
0.084000	1.552338
0.085000	1.543319
0.086000	1.532046
0.087000	1.533657
0.088000	1.527859
0.089000	1.532690
0.090000	1.536878
0.091000	1.546218
0.092000	1.548151
0.093000	1.561357
0.094000	1.567799
0.095000	1.580360
0.096000	1.586480
0.097000	1.591634
0.098000	1.581971
0.099000	1.578428
0.100000	1.564900
0.101000	1.554271
0.102000	1.544608
0.103000	1.542675
0.104000	1.525926
0.105000	1.535911
0.106000	1.539132
0.107000	1.544608
0.108000	1.554593
0.109000	1.559746
0.110000	1.571020
0.111000	1.582937
0.112000	1.588735
0.113000	1.592600
0.114000	1.590345
0.115000	1.589701
0.116000	1.576817
0.117000	1.562645
0.118000	1.558780
0.119000	1.544930
0.120000	1.540098
0.121000	1.537844
0.122000	1.539132
0.123000	1.539454
0.124000	1.544930
0.125000	1.552338
0.126000	1.557492
0.127000	1.568443
0.128000	1.576817
0.129000	1.584548
0.130000	1.594855
0.131000	1.596143
0.132000	1.591956
0.133000	1.572630
0.134000	1.552982
0.135000	1.535267
0.136000	1.531402
0.137000	1.530758
0.138000	1.534301
0.139000	1.536878
0.140000	1.537844
0.141000	1.544608
0.142000	1.556847
0.143000	1.566832
0.144000	1.574240
0.145000	1.584870
0.146000	1.589701
0.147000	1.591634
0.148000	1.590345
0.149000	1.581649
0.150000	1.564256
0.151000	1.554271
0.152000	1.545574
0.153000	1.539454
0.154000	1.532368
0.155000	1.537200
0.156000	1.537522
0.157000	1.539454
0.158000	1.544930
0.159000	1.558458
0.160000	1.566188
0.161000	1.578428
0.162000	1.586158
0.163000	1.590023
0.164000	1.591634
0.165000	1.583581
0.166000	1.577139
0.167000	1.558780
0.168000	1.550728
0.169000	1.547185
0.170000	1.537522
0.171000	1.534623
0.172000	1.535267
0.173000	1.538166
0.174000	1.544930
0.175000	1.551694
0.176000	1.556525
0.177000	1.565222
0.178000	1.576817
0.179000	1.580682
0.180000	1.583581
0.181000	1.580682
0.182000	1.575207
0.183000	1.564256
0.184000	1.552660
0.185000	1.541709
0.186000	1.538166
0.187000	1.531724
0.188000	1.533657
0.189000	1.533012
0.190000	1.525604
0.191000	1.539454
0.192000	1.549761
0.193000	1.557814
0.194000	1.568765
0.195000	1.581004
0.196000	1.584870
0.197000	1.584870
0.198000	1.584225
0.199000	1.576817
0.200000	1.561035
0.201000	1.550728
0.202000	1.540743
0.203000	1.532368
0.204000	1.528825
0.205000	1.525282
0.206000	1.526893
0.207000	1.530114
0.208000	1.539454
0.209000	1.548795
0.210000	1.557492
0.211000	1.569087
0.212000	1.577139
0.213000	1.582937
0.214000	1.577784
0.215000	1.576495
0.216000	1.565544
0.217000	1.559102
0.218000	1.546862
0.219000	1.541709
0.220000	1.537522
0.221000	1.534623
0.222000	1.537844
0.223000	1.539132
0.224000	1.544930
0.225000	1.554915
0.226000	1.564256
0.227000	1.570375
0.228000	1.581004
0.229000	1.585836
0.230000	1.590023
0.231000	1.591312
0.232000	1.585514
0.233000	1.571986
0.234000	1.558458
0.235000	1.552016
0.236000	1.542353
0.237000	1.537844
0.238000	1.538166
0.239000	1.541065
0.240000	1.543319
0.241000	1.557169
0.242000	1.564578
0.243000	1.577461
0.244000	1.591634
0.245000	1.602263
0.246000	1.604839
0.247000	1.594210
0.248000	1.584225
0.249000	1.577461
0.250000	1.562967
0.251000	1.552016
0.252000	1.549761
0.253000	1.538488
0.254000	1.533979
0.255000	1.538488
0.256000	1.541709
0.257000	1.547185
0.258000	1.553304
0.259000	1.562967
0.260000	1.574240
0.261000	1.583259
0.262000	1.592278
0.263000	1.597753
0.264000	1.594532
0.265000	1.593566
0.266000	1.579072
0.267000	1.567154
0.268000	1.555881
0.269000	1.552982
0.270000	1.548473
0.271000	1.545252
0.272000	1.546540
0.273000	1.547829
0.274000	1.554593
0.275000	1.561035
0.276000	1.566188
0.277000	1.578428
0.278000	1.588091
0.279000	1.597431
0.280000	1.598398
0.281000	1.596143
0.282000	1.585836
0.283000	1.577139
0.284000	1.565222
0.285000	1.554593
0.286000	1.549761
0.287000	1.547185
0.288000	1.550406
0.289000	1.552338
0.290000	1.550083
0.291000	1.555881
0.292000	1.560068
0.293000	1.567477
0.294000	1.582937
0.295000	1.592278
0.296000	1.601296
0.297000	1.600330
0.298000	1.596143
0.299000	1.589379
0.300000	1.582293
0.301000	1.565222
0.302000	1.555881
0.303000	1.548151
0.304000	1.542031
0.305000	1.543319
0.306000	1.542353
0.307000	1.546862
0.308000	1.555559
0.309000	1.565544
0.310000	1.574563
0.311000	1.583259
0.312000	1.592278
0.313000	1.592922
0.314000	1.593566
0.315000	1.588091
0.316000	1.572630
0.317000	1.563289
0.318000	1.552660
0.319000	1.546540
0.320000	1.535911
0.321000	1.534623
0.322000	1.535589
0.323000	1.536878
0.324000	1.540098
0.325000	1.546218
0.326000	1.556525
0.327000	1.563611
0.328000	1.576495
0.329000	1.586802
0.330000	1.584548
0.331000	1.583903
0.332000	1.575207
0.333000	1.560068
0.334000	1.548151
0.335000	1.540098
0.336000	1.535267
0.337000	1.528825
0.338000	1.528181
0.339000	1.533979
0.340000	1.537200
0.341000	1.547185
0.342000	1.552982
0.343000	1.557814
0.344000	1.576817
0.345000	1.583259
0.346000	1.583581
0.347000	1.586158
0.348000	1.582293
0.349000	1.567154
0.350000	1.551050
0.351000	1.552982
0.352000	1.533012
0.353000	1.532368
0.354000	1.527537
0.355000	1.530114
0.356000	1.530114
0.357000	1.534301
0.358000	1.543964
0.359000	1.552016
0.360000	1.556847
0.361000	1.568121
0.362000	1.576495
0.363000	1.580038
0.364000	1.578750
0.365000	1.576495
0.366000	1.566510
0.367000	1.549761
0.368000	1.540421
0.369000	1.532046
0.370000	1.528825
0.371000	1.525926
0.372000	1.523994
0.373000	1.530114
0.374000	1.536878
0.375000	1.542353
0.376000	1.552982
0.377000	1.566832
0.378000	1.575851
0.379000	1.584548
0.380000	1.583903
0.381000	1.581971
0.382000	1.576817
0.383000	1.561679
0.384000	1.536878
0.385000	1.533979
0.386000	1.525282
0.387000	1.521095
0.388000	1.526893
0.389000	1.530436
0.390000	1.535589
0.391000	1.541709
0.392000	1.551372
0.393000	1.560713
0.394000	1.568443
0.395000	1.584225
0.396000	1.586480
0.397000	1.590023
0.398000	1.583903
0.399000	1.576495
0.400000	1.559746
0.401000	1.546540
0.402000	1.545896
0.403000	1.536878
0.404000	1.533657
0.405000	1.532368
0.406000	1.536233
0.407000	1.542353
0.408000	1.549439
0.409000	1.558458
0.410000	1.567154
0.411000	1.580360
0.412000	1.589057
0.413000	1.590023
0.414000	1.588413
0.415000	1.582615
0.416000	1.572630
0.417000	1.561035
0.418000	1.546862
0.419000	1.536878
0.420000	1.534301
0.421000	1.535267
0.422000	1.535911
0.423000	1.540743
0.424000	1.546862
0.425000	1.552982
0.426000	1.562001
0.427000	1.570053
0.428000	1.573274
0.429000	1.578750
0.430000	1.581649
0.431000	1.577784
0.432000	1.572630
0.433000	1.557169
0.434000	1.547829
0.435000	1.534945
0.436000	1.526571
0.437000	1.525282
0.438000	1.517874
0.439000	1.525604
0.440000	1.526571
0.441000	1.534623
0.442000	1.539454
0.443000	1.546862
0.444000	1.549117
0.445000	1.564900
0.446000	1.567477
0.447000	1.565544
0.448000	1.558780
0.449000	1.549117
0.450000	1.529791
0.451000	1.516908
0.452000	1.507889
0.453000	1.495649
0.454000	1.492751
0.455000	1.485987
0.456000	1.490174
0.457000	1.489530
0.458000	1.503702
0.459000	1.512076
0.460000	1.520451
0.461000	1.537844
0.462000	1.550406
0.463000	1.561357
0.464000	1.570053
0.465000	1.570697
0.466000	1.560390
0.467000	1.550728
0.468000	1.542031
0.469000	1.531080
0.470000	1.525282
0.471000	1.531724
0.472000	1.522383
0.473000	1.537200
0.474000	1.543319
0.475000	1.555881
0.476000	1.569731
0.477000	1.584548
0.478000	1.591312
0.479000	1.600008
0.480000	1.602585
0.481000	1.596787
0.482000	1.587124
0.483000	1.576817
0.484000	1.564256
0.485000	1.562645
0.486000	1.557169
0.487000	1.556525
0.488000	1.552660
0.489000	1.554915
0.490000	1.559102
0.491000	1.566510
0.492000	1.576173
0.493000	1.586480
0.494000	1.597431
0.495000	1.606128
0.496000	1.611603
0.497000	1.611603
0.498000	1.603229
0.499000	1.594532
0.500000	1.580682
0.501000	1.569731
0.502000	1.563611
0.503000	1.557814
0.504000	1.553304
0.505000	1.559746
0.506000	1.559102
0.507000	1.566510
0.508000	1.575529
0.509000	1.584548
0.510000	1.594210
0.511000	1.605484
0.512000	1.611603
0.513000	1.616435
0.514000	1.613536
0.515000	1.609027
0.516000	1.595821
0.517000	1.582293
0.518000	1.568765
0.519000	1.560713
0.520000	1.555559
0.521000	1.556525
0.522000	1.555559
0.523000	1.562323
0.524000	1.573918
0.525000	1.576173
0.526000	1.577139
0.527000	1.593244
0.528000	1.604839
0.529000	1.613536
0.530000	1.609993
0.531000	1.606450
0.532000	1.597431
0.533000	1.581649
0.534000	1.568765
0.535000	1.559746
0.536000	1.548795
0.537000	1.546540
0.538000	1.542031
0.539000	1.546218
0.540000	1.547829
0.541000	1.555559
0.542000	1.561035
0.543000	1.573596
0.544000	1.582293
0.545000	1.590667
0.546000	1.590345
0.547000	1.587768
0.548000	1.583259
0.549000	1.575207
0.550000	1.557169
0.551000	1.543964
0.552000	1.538810
0.553000	1.533012
0.554000	1.528181
0.555000	1.528181
0.556000	1.533979
0.557000	1.535911
0.558000	1.545574
0.559000	1.554271
0.560000	1.564900
0.561000	1.572630
0.562000	1.583903
0.563000	1.581004
0.564000	1.575529
0.565000	1.571342
0.566000	1.558458
0.567000	1.546540
0.568000	1.537200
0.569000	1.533979
0.570000	1.528825
0.571000	1.528825
0.572000	1.531402
0.573000	1.532046
0.574000	1.539132
0.575000	1.546862
0.576000	1.553626
0.577000	1.566510
0.578000	1.577784
0.579000	1.582293
0.580000	1.582615
0.581000	1.580360
0.582000	1.577784
0.583000	1.562323
0.584000	1.553304
0.585000	1.546540
0.586000	1.537522
0.587000	1.537522
0.588000	1.539132
0.589000	1.542675
0.590000	1.547829
0.591000	1.555559
0.592000	1.565866
0.593000	1.572308
0.594000	1.580360
0.595000	1.589379
0.596000	1.593888
0.597000	1.590345
0.598000	1.592600
0.599000	1.578750
0.600000	1.569087
0.601000	1.557814
0.602000	1.550083
0.603000	1.546540
0.604000	1.542997
0.605000	1.546540
0.606000	1.546862
0.607000	1.550406
0.608000	1.552338
0.609000	1.562645
0.610000	1.571020
0.611000	1.584870
0.612000	1.593244
0.613000	1.593566
0.614000	1.589379
0.615000	1.585514
0.616000	1.571664
0.617000	1.563289
0.618000	1.556847
0.619000	1.552982
0.620000	1.554593
0.621000	1.551694
0.622000	1.545896
0.623000	1.539132
0.624000	1.533334
0.625000	1.543642
0.626000	1.555881
0.627000	1.566188
0.628000	1.571342
0.629000	1.578106
0.630000	1.579716
0.631000	1.578750
0.632000	1.574563
0.633000	1.558780
0.634000	1.545896
0.635000	1.542675
0.636000	1.537200
0.637000	1.533334
0.638000	1.533012
0.639000	1.539132
0.640000	1.539132
0.641000	1.545252
0.642000	1.550728
0.643000	1.557492
0.644000	1.567477
0.645000	1.578750
0.646000	1.585836
0.647000	1.582937
0.648000	1.578428
0.649000	1.566832
0.650000	1.555237
0.651000	1.547185
0.652000	1.536233
0.653000	1.530114
0.654000	1.532368
0.655000	1.534623
0.656000	1.536878
0.657000	1.540421
0.658000	1.548151
0.659000	1.557169
0.660000	1.563933
0.661000	1.577461
0.662000	1.583903
0.663000	1.582293
0.664000	1.583903
0.665000	1.575851
0.666000	1.563933
0.667000	1.552982
0.668000	1.542675
0.669000	1.530758
0.670000	1.524638
0.671000	1.525604
0.672000	1.527215
0.673000	1.528181
0.674000	1.531402
0.675000	1.538810
0.676000	1.544608
0.677000	1.552016
0.678000	1.564256
0.679000	1.568443
0.680000	1.570375
0.681000	1.569087
0.682000	1.562967
0.683000	1.548151
0.684000	1.544286
0.685000	1.529147
0.686000	1.525282
0.687000	1.520451
0.688000	1.522061
0.689000	1.521739
0.690000	1.527537
0.691000	1.533334
0.692000	1.542675
0.693000	1.547507
0.694000	1.563289
0.695000	1.564578
0.696000	1.570375
0.697000	1.567799
0.698000	1.565544
0.699000	1.550728
0.700000	1.540421
0.701000	1.528181
0.702000	1.521417
0.703000	1.517874
0.704000	1.514975
0.705000	1.517874
0.706000	1.519807
0.707000	1.523350
0.708000	1.533334
0.709000	1.543319
0.710000	1.550406
0.711000	1.563289
0.712000	1.574240
0.713000	1.572308
0.714000	1.571342
0.715000	1.561357
0.716000	1.548795
0.717000	1.535267
0.718000	1.526571
0.719000	1.518196
0.720000	1.514331
0.721000	1.512720
0.722000	1.515941
0.723000	1.517552
0.724000	1.525926
0.725000	1.538810
0.726000	1.545896
0.727000	1.553949
0.728000	1.567154
0.729000	1.575529
0.730000	1.576817
0.731000	1.573596
0.732000	1.568443
0.733000	1.550406
0.734000	1.544930
0.735000	1.537200
0.736000	1.527215
0.737000	1.526571
0.738000	1.532046
0.739000	1.530114
0.740000	1.535267
0.741000	1.542997
0.742000	1.548473
0.743000	1.558136
0.744000	1.568121
0.745000	1.581649
0.746000	1.580682
0.747000	1.579394
0.748000	1.573596
0.749000	1.561035
0.750000	1.546540
0.751000	1.539132
0.752000	1.533979
0.753000	1.528503
0.754000	1.528503
0.755000	1.526248
0.756000	1.533657
0.757000	1.533979
0.758000	1.545252
0.759000	1.554271
0.760000	1.562323
0.761000	1.575529
0.762000	1.585836
0.763000	1.589379
0.764000	1.586480
0.765000	1.581971
0.766000	1.568443
0.767000	1.552660
0.768000	1.543319
0.769000	1.537522
0.770000	1.531080
0.771000	1.532690
0.772000	1.539132
0.773000	1.542031
0.774000	1.544930
0.775000	1.554593
0.776000	1.563611
0.777000	1.569087
0.778000	1.583581
0.779000	1.587768
0.780000	1.585836
0.781000	1.587124
0.782000	1.580038
0.783000	1.563933
0.784000	1.553949
0.785000	1.547185
0.786000	1.539454
0.787000	1.537522
0.788000	1.539776
0.789000	1.542997
0.790000	1.544286
0.791000	1.555881
0.792000	1.563289
0.793000	1.568765
0.794000	1.580360
0.795000	1.597109
0.796000	1.594532
0.797000	1.601619
0.798000	1.591312
0.799000	1.585514
0.800000	1.571986
0.801000	1.566832
0.802000	1.560068
0.803000	1.557169
0.804000	1.547185
0.805000	1.549439
0.806000	1.549761
0.807000	1.555237
0.808000	1.561035
0.809000	1.567477
0.810000	1.577461
0.811000	1.585836
0.812000	1.595821
0.813000	1.598398
0.814000	1.595177
0.815000	1.597753
0.816000	1.577784
0.817000	1.568121
0.818000	1.558780
0.819000	1.549439
0.820000	1.545896
0.821000	1.548473
0.822000	1.548151
0.823000	1.557169
0.824000	1.559424
0.825000	1.563289
0.826000	1.573274
0.827000	1.580360
0.828000	1.589379
0.829000	1.595499
0.830000	1.598720
0.831000	1.593566
0.832000	1.579394
0.833000	1.562323
0.834000	1.555559
0.835000	1.552016
0.836000	1.547185
0.837000	1.540743
0.838000	1.541709
0.839000	1.543642
0.840000	1.545574
0.841000	1.552338
0.842000	1.563289
0.843000	1.569409
0.844000	1.577784
0.845000	1.584548
0.846000	1.590023
0.847000	1.588413
0.848000	1.587768
0.849000	1.580038
0.850000	1.563611
0.851000	1.552982
0.852000	1.544608
0.853000	1.536233
0.854000	1.533979
0.855000	1.534945
0.856000	1.532046
0.857000	1.541709
0.858000	1.546218
0.859000	1.547185
0.860000	1.563933
0.861000	1.572952
0.862000	1.580682
0.863000	1.578106
0.864000	1.575207
0.865000	1.571664
0.866000	1.556525
0.867000	1.547185
0.868000	1.540098
0.869000	1.539132
0.870000	1.537522
0.871000	1.533334
0.872000	1.528181
0.873000	1.536233
0.874000	1.540098
0.875000	1.549117
0.876000	1.554593
0.877000	1.563933
0.878000	1.572952
0.879000	1.578106
0.880000	1.576495
0.881000	1.576173
0.882000	1.568121
0.883000	1.555237
0.884000	1.545574
0.885000	1.536555
0.886000	1.530758
0.887000	1.530436
0.888000	1.529147
0.889000	1.532046
0.890000	1.534623
0.891000	1.539132
0.892000	1.546540
0.893000	1.554593
0.894000	1.568443
0.895000	1.583581
0.896000	1.582293
0.897000	1.576495
0.898000	1.571986
0.899000	1.562001
0.900000	1.549117
0.901000	1.539132
0.902000	1.537522
0.903000	1.526571
0.904000	1.525282
0.905000	1.533657
0.906000	1.534945
0.907000	1.537844
0.908000	1.546540
0.909000	1.553304
0.910000	1.561357
0.911000	1.568765
0.912000	1.577784
0.913000	1.575851
0.914000	1.573596
0.915000	1.571664
0.916000	1.562001
0.917000	1.551372
0.918000	1.542997
0.919000	1.534945
0.920000	1.532046
0.921000	1.533334
0.922000	1.534623
0.923000	1.537522
0.924000	1.546218
0.925000	1.550083
0.926000	1.560713
0.927000	1.570697
0.928000	1.583581
0.929000	1.584548
0.930000	1.586158
0.931000	1.579394
0.932000	1.574240
0.933000	1.558780
0.934000	1.547507
0.935000	1.540098
0.936000	1.536233
0.937000	1.537200
0.938000	1.535911
0.939000	1.533334
0.940000	1.539454
0.941000	1.551694
0.942000	1.560390
0.943000	1.565222
0.944000	1.578750
0.945000	1.581327
0.946000	1.587768
0.947000	1.588091
0.948000	1.581649
0.949000	1.572630
0.950000	1.556525
0.951000	1.549761
0.952000	1.543642
0.953000	1.537200
0.954000	1.532690
0.955000	1.538810
0.956000	1.539454
0.957000	1.548151
0.958000	1.552338
0.959000	1.562645
0.960000	1.569731
0.961000	1.587124
0.962000	1.598075
0.963000	1.592600
0.964000	1.590023
0.965000	1.585836
0.966000	1.569731
0.967000	1.562967
0.968000	1.551050
0.969000	1.543642
0.970000	1.537522
0.971000	1.540743
0.972000	1.545896
0.973000	1.546862
0.974000	1.553949
0.975000	1.561035
0.976000	1.569731
0.977000	1.581004
0.978000	1.590345
0.979000	1.592922
0.980000	1.596143
0.981000	1.594532
0.982000	1.583581
0.983000	1.575207
0.984000	1.562001
0.985000	1.556525
0.986000	1.547185
0.987000	1.552016
0.988000	1.553626
0.989000	1.552660
0.990000	1.556525
0.991000	1.557492
0.992000	1.570053
0.993000	1.579072
0.994000	1.585192
0.995000	1.591956
0.996000	1.594532
0.997000	1.597109
0.998000	1.591634
0.999000	1.579716
1.000000	1.570053
1.001000	1.559102
1.002000	1.551372
1.003000	1.542353
1.004000	1.544286
1.005000	1.545574
1.006000	1.543964
1.007000	1.555559
1.008000	1.565222
1.009000	1.571020
1.010000	1.575851
1.011000	1.587124
1.012000	1.597431
1.013000	1.593244
1.014000	1.594532
1.015000	1.590989
1.016000	1.577139
1.017000	1.560068
1.018000	1.555559
1.019000	1.542675
1.020000	1.542997
1.021000	1.546540
1.022000	1.547507
1.023000	1.550406
1.024000	1.555559
1.025000	1.560068
1.026000	1.570053
1.027000	1.579072
1.028000	1.589379
1.029000	1.595821
1.030000	1.592922
1.031000	1.592922
1.032000	1.585192
1.033000	1.571664
1.034000	1.557814
1.035000	1.553304
1.036000	1.549761
1.037000	1.542997
1.038000	1.547507
1.039000	1.546862
1.040000	1.552016
1.041000	1.558780
1.042000	1.565866
1.043000	1.576173
1.044000	1.581971
1.045000	1.591634
1.046000	1.597753
1.047000	1.602585
1.048000	1.597753
1.049000	1.581971
1.050000	1.569087
1.051000	1.559424
1.052000	1.551694
1.053000	1.544930
1.054000	1.547185
1.055000	1.548795
1.056000	1.548473
1.057000	1.556525
1.058000	1.560068
1.059000	1.566510
1.060000	1.577139
1.061000	1.581649
1.062000	1.588735
1.063000	1.593244
1.064000	1.588735
1.065000	1.582937
1.066000	1.567477
1.067000	1.559102
1.068000	1.548473
1.069000	1.543964
1.070000	1.539454
1.071000	1.543642
1.072000	1.540421
1.073000	1.544286
1.074000	1.547829
1.075000	1.557814
1.076000	1.561035
1.077000	1.568121
1.078000	1.572308
1.079000	1.576817
1.080000	1.591634
1.081000	1.584870
1.082000	1.574563
1.083000	1.555559
1.084000	1.543642
1.085000	1.536233
1.086000	1.534301
1.087000	1.529147
1.088000	1.533657
1.089000	1.534623
1.090000	1.538166
1.091000	1.549439
1.092000	1.558136
1.093000	1.565544
1.094000	1.569731
1.095000	1.574885
1.096000	1.579716
1.097000	1.580360
1.098000	1.578750
1.099000	1.569087
1.100000	1.559102
1.101000	1.558458
1.102000	1.550406
1.103000	1.543642
1.104000	1.539132
1.105000	1.535589
1.106000	1.540098
1.107000	1.542997
1.108000	1.547829
1.109000	1.554915
1.110000	1.566188
1.111000	1.573596
1.112000	1.582293
1.113000	1.581649
1.114000	1.580038
1.115000	1.576817
1.116000	1.561679
1.117000	1.551694
1.118000	1.543964
1.119000	1.537844
1.120000	1.532368
1.121000	1.535589
1.122000	1.534623
1.123000	1.541709
1.124000	1.542997
1.125000	1.552016
1.126000	1.560713
1.127000	1.567799
1.128000	1.580682
1.129000	1.583259
1.130000	1.575207
1.131000	1.571020
1.132000	1.567154
1.133000	1.551050
1.134000	1.541387
1.135000	1.535911
1.136000	1.531724
1.137000	1.527215
1.138000	1.531402
1.139000	1.531080
1.140000	1.534945
1.141000	1.545574
1.142000	1.552338
1.143000	1.558136
1.144000	1.564900
1.145000	1.577139
1.146000	1.584225
1.147000	1.573596
1.148000	1.568443
1.149000	1.559424
1.150000	1.548795
1.151000	1.539454
1.152000	1.538810
1.153000	1.533657
1.154000	1.529469
1.155000	1.527859
1.156000	1.531402
1.157000	1.536878
1.158000	1.545252
1.159000	1.550083
1.160000	1.561679
1.161000	1.570697
1.162000	1.577461
1.163000	1.566832
1.164000	1.571020
1.165000	1.565222
1.166000	1.557814
1.167000	1.545252
1.168000	1.536555
1.169000	1.529469
1.170000	1.527537
1.171000	1.529791
1.172000	1.529469
1.173000	1.536555
1.174000	1.541065
1.175000	1.554593
1.176000	1.563289
1.177000	1.573274
1.178000	1.579072
1.179000	1.581327
1.180000	1.582293
1.181000	1.577461
1.182000	1.567477
1.183000	1.556203
1.184000	1.548473
1.185000	1.542031
1.186000	1.533334
1.187000	1.525604
1.188000	1.534945
1.189000	1.534301
1.190000	1.539454
1.191000	1.547185
1.192000	1.557169
1.193000	1.564900
1.194000	1.573918
1.195000	1.584870
1.196000	1.589379
1.197000	1.581649
1.198000	1.578428
1.199000	1.568443
1.200000	1.554593
1.201000	1.544286
1.202000	1.537200
1.203000	1.531080
1.204000	1.533334
1.205000	1.533979
1.206000	1.535267
1.207000	1.541709
1.208000	1.551694
1.209000	1.560390
1.210000	1.567477
1.211000	1.580038
1.212000	1.589701
1.213000	1.588735
1.214000	1.585514
1.215000	1.580682
1.216000	1.565866
1.217000	1.555559
1.218000	1.547507
1.219000	1.544286
1.220000	1.541065
1.221000	1.543642
1.222000	1.542675
1.223000	1.550406
1.224000	1.558136
1.225000	1.568443
1.226000	1.574240
1.227000	1.585514
1.228000	1.593566
1.229000	1.601619
1.230000	1.599686
1.231000	1.591634
1.232000	1.583259
1.233000	1.566832
1.234000	1.557169
1.235000	1.549761
1.236000	1.539454
1.237000	1.535267
1.238000	1.534301
1.239000	1.537200
1.240000	1.540098
1.241000	1.549439
1.242000	1.549439
1.243000	1.561357
1.244000	1.570697
1.245000	1.578106
1.246000	1.578750
1.247000	1.582937
1.248000	1.576173
1.249000	1.565866
1.250000	1.551372
1.251000	1.542675
1.252000	1.542997
1.253000	1.530758
1.254000	1.531402
1.255000	1.532368
1.256000	1.533657
1.257000	1.543642
1.258000	1.552660
1.259000	1.560068
1.260000	1.568121
1.261000	1.575851
1.262000	1.579394
1.263000	1.582293
1.264000	1.581004
1.265000	1.572308
1.266000	1.561357
1.267000	1.549761
1.268000	1.542675
1.269000	1.538488
1.270000	1.532368
1.271000	1.527859
1.272000	1.532690
1.273000	1.535911
1.274000	1.545252
1.275000	1.554593
1.276000	1.562967
1.277000	1.573596
1.278000	1.581327
1.279000	1.588735
1.280000	1.587124
1.281000	1.582293
1.282000	1.561035
1.283000	1.555881
1.284000	1.546862
1.285000	1.539776
1.286000	1.536233
1.287000	1.531080
1.288000	1.537522
1.289000	1.542997
1.290000	1.542353
1.291000	1.546862
1.292000	1.556203
1.293000	1.565222
1.294000	1.580360
1.295000	1.583903
1.296000	1.588091
1.297000	1.586158
1.298000	1.577784
1.299000	1.567154
1.300000	1.552338
1.301000	1.544286
1.302000	1.536878
1.303000	1.531402
1.304000	1.534945
1.305000	1.536233
1.306000	1.538810
1.307000	1.543319
1.308000	1.553304
1.309000	1.556525
1.310000	1.568443
1.311000	1.577784
1.312000	1.582615
1.313000	1.583903
1.314000	1.582293
1.315000	1.574885
1.316000	1.561035
1.317000	1.546540
1.318000	1.543319
1.319000	1.535911
1.320000	1.527215
1.321000	1.535267
1.322000	1.535267
1.323000	1.540421
1.324000	1.545896
1.325000	1.553949
1.326000	1.564578
1.327000	1.572630
1.328000	1.584225
1.329000	1.585514
1.330000	1.585836
1.331000	1.581649
1.332000	1.571020
1.333000	1.557814
1.334000	1.544930
1.335000	1.539132
1.336000	1.533979
1.337000	1.535267
1.338000	1.536233
1.339000	1.537522
1.340000	1.543642
1.341000	1.549761
1.342000	1.559424
1.343000	1.567154
1.344000	1.576495
1.345000	1.588413
1.346000	1.579716
1.347000	1.578106
1.348000	1.577461
1.349000	1.568443
1.350000	1.557814
1.351000	1.546862
1.352000	1.543319
1.353000	1.534945
1.354000	1.536233
1.355000	1.536878
1.356000	1.531724
1.357000	1.544286
1.358000	1.550728
1.359000	1.556847
1.360000	1.570053
1.361000	1.577461
1.362000	1.586158
1.363000	1.580360
1.364000	1.579716
1.365000	1.573274
1.366000	1.561679
1.367000	1.554915
1.368000	1.540421
1.369000	1.540421
1.370000	1.533012
1.371000	1.533334
1.372000	1.532690
1.373000	1.541065
1.374000	1.545574
1.375000	1.548795
1.376000	1.557169
1.377000	1.572630
1.378000	1.581971
1.379000	1.589057
1.380000	1.585514
1.381000	1.582615
1.382000	1.572952
1.383000	1.560390
1.384000	1.548473
1.385000	1.542353
1.386000	1.536878
1.387000	1.535267
1.388000	1.537200
1.389000	1.538810
1.390000	1.544608
1.391000	1.551050
1.392000	1.559746
1.393000	1.567799
1.394000	1.579072
1.395000	1.585514
1.396000	1.586480
1.397000	1.583903
1.398000	1.583903
1.399000	1.567799
1.400000	1.557169
1.401000	1.549439
1.402000	1.540743
1.403000	1.532690
1.404000	1.534623
1.405000	1.534945
1.406000	1.538810
1.407000	1.547185
1.408000	1.554915
1.409000	1.562967
1.410000	1.576495
1.411000	1.575207
1.412000	1.584225
1.413000	1.586802
1.414000	1.583903
1.415000	1.576173
1.416000	1.562323
1.417000	1.556525
1.418000	1.548795
1.419000	1.541065
1.420000	1.537844
1.421000	1.537844
1.422000	1.539132
1.423000	1.540421
1.424000	1.548151
1.425000	1.555559
1.426000	1.560390
1.427000	1.572952
1.428000	1.581327
1.429000	1.582293
1.430000	1.583581
1.431000	1.579072
1.432000	1.569087
1.433000	1.556203
1.434000	1.546218
1.435000	1.542675
1.436000	1.537844
1.437000	1.531724
1.438000	1.533012
1.439000	1.538166
1.440000	1.543642
1.441000	1.550728
1.442000	1.559424
1.443000	1.563611
1.444000	1.565544
1.445000	1.581971
1.446000	1.587446
1.447000	1.584548
1.448000	1.578106
1.449000	1.567154
1.450000	1.555559
1.451000	1.545574
1.452000	1.536555
1.453000	1.529791
1.454000	1.532368
1.455000	1.536878
1.456000	1.534301
1.457000	1.542675
1.458000	1.553626
1.459000	1.561679
1.460000	1.568765
1.461000	1.579716
1.462000	1.587124
1.463000	1.583581
1.464000	1.580360
1.465000	1.572630
1.466000	1.558458
1.467000	1.553626
1.468000	1.544608
1.469000	1.536878
1.470000	1.537844
1.471000	1.538166
1.472000	1.541709
1.473000	1.544608
1.474000	1.551050
1.475000	1.555881
1.476000	1.563611
1.477000	1.570375
1.478000	1.583259
1.479000	1.584548
1.480000	1.584870
1.481000	1.581327
1.482000	1.571020
1.483000	1.556847
1.484000	1.547829
1.485000	1.542675
1.486000	1.533334
1.487000	1.538488
1.488000	1.536878
1.489000	1.540743
1.490000	1.546862
1.491000	1.554915
1.492000	1.560713
1.493000	1.571986
1.494000	1.580682
1.495000	1.584548
1.496000	1.581649
1.497000	1.584225
1.498000	1.579394
1.499000	1.564578
1.500000	1.552982
1.501000	1.547185
1.502000	1.538488
1.503000	1.537522
1.504000	1.535911
1.505000	1.533657
1.506000	1.540421
1.507000	1.545574
1.508000	1.552016
1.509000	1.561357
1.510000	1.570375
1.511000	1.579394
1.512000	1.586802
1.513000	1.582293
1.514000	1.581971
1.515000	1.573274
1.516000	1.562323
1.517000	1.550406
1.518000	1.544608
1.519000	1.534623
1.520000	1.533657
1.521000	1.537522
1.522000	1.539454
1.523000	1.544608
1.524000	1.550728
1.525000	1.560713
1.526000	1.565866
1.527000	1.575207
1.528000	1.580360
1.529000	1.585836
1.530000	1.583903
1.531000	1.582615
1.532000	1.572630
1.533000	1.557814
1.534000	1.552016
1.535000	1.543964
1.536000	1.539776
1.537000	1.534623
1.538000	1.536555
1.539000	1.541065
1.540000	1.545252
1.541000	1.552016
1.542000	1.562001
1.543000	1.568443
1.544000	1.574885
1.545000	1.590023
1.546000	1.583581
1.547000	1.581004
1.548000	1.576495
1.549000	1.562323
1.550000	1.556525
1.551000	1.546218
1.552000	1.537844
1.553000	1.530436
1.554000	1.536233
1.555000	1.539776
1.556000	1.541065
1.557000	1.545574
1.558000	1.552338
1.559000	1.559746
1.560000	1.579072
1.561000	1.578750
1.562000	1.584225
1.563000	1.584870
1.564000	1.582293
1.565000	1.572952
1.566000	1.561357
1.567000	1.550728
1.568000	1.542031
1.569000	1.536878
1.570000	1.534623
1.571000	1.538166
1.572000	1.538166
1.573000	1.540421
1.574000	1.549761
1.575000	1.555559
1.576000	1.566832
1.577000	1.573596
1.578000	1.579394
1.579000	1.581971
1.580000	1.581971
1.581000	1.576817
1.582000	1.569409
1.583000	1.551372
1.584000	1.547829
1.585000	1.542675
1.586000	1.537844
1.587000	1.536878
1.588000	1.535911
1.589000	1.542031
1.590000	1.543319
1.591000	1.552016
1.592000	1.560713
1.593000	1.570697
1.594000	1.577461
1.595000	1.585514
1.596000	1.581004
1.597000	1.578750
1.598000	1.575529
1.599000	1.561035
1.600000	1.553626
1.601000	1.544608
1.602000	1.538166
1.603000	1.534301
1.604000	1.533657
1.605000	1.537200
1.606000	1.538488
1.607000	1.543642
1.608000	1.552338
1.609000	1.559746
1.610000	1.568121
1.611000	1.577784
1.612000	1.582615
1.613000	1.579716
1.614000	1.579716
1.615000	1.576173
1.616000	1.557492
1.617000	1.548151
1.618000	1.539132
1.619000	1.537200
1.620000	1.531080
1.621000	1.529791
1.622000	1.533334
1.623000	1.538488
1.624000	1.545896
1.625000	1.558780
1.626000	1.562645
1.627000	1.572952
1.628000	1.589057
1.629000	1.581971
1.630000	1.580038
1.631000	1.580682
1.632000	1.564578
1.633000	1.552016
1.634000	1.546218
1.635000	1.532368
1.636000	1.534945
1.637000	1.529791
1.638000	1.534945
1.639000	1.535267
1.640000	1.540743
1.641000	1.549439
1.642000	1.558458
1.643000	1.563289
1.644000	1.573274
1.645000	1.582615
1.646000	1.581649
1.647000	1.579394
1.648000	1.576173
1.649000	1.561357
1.650000	1.548151
1.651000	1.542353
1.652000	1.537844
1.653000	1.532368
1.654000	1.533979
1.655000	1.533979
1.656000	1.535589
1.657000	1.540098
1.658000	1.550728
1.659000	1.553626
1.660000	1.567154
1.661000	1.578106
1.662000	1.577461
1.663000	1.577461
1.664000	1.574240
1.665000	1.564578
1.666000	1.555237
1.667000	1.543642
1.668000	1.533657
1.669000	1.526893
1.670000	1.527215
1.671000	1.528503
1.672000	1.528181
1.673000	1.537522
1.674000	1.544608
1.675000	1.548473
1.676000	1.558780
1.677000	1.565222
1.678000	1.572308
1.679000	1.572630
1.680000	1.571664
1.681000	1.571664
1.682000	1.559746
1.683000	1.547507
1.684000	1.540098
1.685000	1.538488
1.686000	1.528503
1.687000	1.525926
1.688000	1.527215
1.689000	1.533657
1.690000	1.535267
1.691000	1.544286
1.692000	1.551050
1.693000	1.559746
1.694000	1.571342
1.695000	1.579394
1.696000	1.586158
1.697000	1.575851
1.698000	1.572630
1.699000	1.555881
1.700000	1.546862
1.701000	1.541065
1.702000	1.531402
1.703000	1.527859
1.704000	1.529147
1.705000	1.530758
1.706000	1.535267
1.707000	1.542353
1.708000	1.553304
1.709000	1.554593
1.710000	1.569087
1.711000	1.579394
1.712000	1.581971
1.713000	1.583581
1.714000	1.581971
1.715000	1.571020
1.716000	1.554593
1.717000	1.544286
1.718000	1.539776
1.719000	1.533334
1.720000	1.532368
1.721000	1.534623
1.722000	1.538166
1.723000	1.542031
1.724000	1.552016
1.725000	1.554271
1.726000	1.561679
1.727000	1.573274
1.728000	1.577139
1.729000	1.581327
1.730000	1.582293
1.731000	1.577461
1.732000	1.565866
1.733000	1.554915
1.734000	1.546218
1.735000	1.536233
1.736000	1.533012
1.737000	1.535589
1.738000	1.543642
1.739000	1.541065
1.740000	1.544286
1.741000	1.564578
1.742000	1.563933
1.743000	1.568765
1.744000	1.576817
1.745000	1.584548
1.746000	1.586480
1.747000	1.576817
1.748000	1.575529
1.749000	1.565222
1.750000	1.548795
1.751000	1.544930
1.752000	1.537844
1.753000	1.536878
1.754000	1.533657
1.755000	1.538810
1.756000	1.541709
1.757000	1.545896
1.758000	1.559424
1.759000	1.563611
1.760000	1.573596
1.761000	1.581649
1.762000	1.589057
1.763000	1.586480
1.764000	1.584225
1.765000	1.570375
1.766000	1.563611
1.767000	1.553949
1.768000	1.543642
1.769000	1.538488
1.770000	1.535911
1.771000	1.539132
1.772000	1.538488
1.773000	1.548151
1.774000	1.556847
1.775000	1.562645
1.776000	1.569731
1.777000	1.580360
1.778000	1.585836
1.779000	1.590345
1.780000	1.589379
1.781000	1.583259
1.782000	1.566832
1.783000	1.562323
1.784000	1.552338
1.785000	1.547829
1.786000	1.540743
1.787000	1.538488
1.788000	1.543642
1.789000	1.546218
1.790000	1.559424
1.791000	1.558136
1.792000	1.566188
1.793000	1.575851
1.794000	1.584870
1.795000	1.589379
1.796000	1.591956
1.797000	1.587124
1.798000	1.581649
1.799000	1.570053
1.800000	1.559102
1.801000	1.550406
1.802000	1.543964
1.803000	1.541387
1.804000	1.539454
1.805000	1.545896
1.806000	1.553949
1.807000	1.559746
1.808000	1.571986
1.809000	1.573596
1.810000	1.575207
1.811000	1.586480
1.812000	1.594210
1.813000	1.590345
1.814000	1.585192
1.815000	1.580038
1.816000	1.564900
1.817000	1.558136
1.818000	1.549761
1.819000	1.544930
1.820000	1.543964
1.821000	1.542675
1.822000	1.549117
1.823000	1.552982
1.824000	1.561035
1.825000	1.565222
1.826000	1.573596
1.827000	1.584225
1.828000	1.590667
1.829000	1.593244
1.830000	1.593244
1.831000	1.585514
1.832000	1.574885
1.833000	1.560713
1.834000	1.555237
1.835000	1.548795
1.836000	1.544608
1.837000	1.543319
1.838000	1.543642
1.839000	1.552982
1.840000	1.559102
1.841000	1.566832
1.842000	1.573274
1.843000	1.576495
1.844000	1.590023
1.845000	1.590989
1.846000	1.588735
1.847000	1.586480
1.848000	1.581649
1.849000	1.569087
1.850000	1.559746
1.851000	1.548795
1.852000	1.545896
1.853000	1.543964
1.854000	1.542675
1.855000	1.551372
1.856000	1.553626
1.857000	1.558780
1.858000	1.566832
1.859000	1.574240
1.860000	1.581649
1.861000	1.587768
1.862000	1.590989
1.863000	1.593566
1.864000	1.585514
1.865000	1.580360
1.866000	1.565222
1.867000	1.556203
1.868000	1.549761
1.869000	1.544930
1.870000	1.542353
1.871000	1.545896
1.872000	1.549761
1.873000	1.553626
1.874000	1.567154
1.875000	1.568121
1.876000	1.571342
1.877000	1.411261
1.878000	0.748713
1.879000	0.673665
1.880000	0.674309
1.881000	0.723267
1.882000	0.841476
1.883000	1.005744
1.884000	1.281457
1.885000	1.637693
1.886000	2.045465
1.887000	2.461934
1.888000	2.768246
1.889000	2.767280
1.890000	2.765992
1.891000	2.767924
1.892000	2.768246
1.893000	2.766636
1.894000	2.766958
1.895000	2.767602
1.896000	2.768891
1.897000	2.770823
1.898000	2.765670
1.899000	2.767280
1.900000	2.766636
1.901000	2.765670
1.902000	2.767602
1.903000	2.767280
1.904000	2.766958
1.905000	2.768246
1.906000	2.767924
1.907000	2.770501
1.908000	2.764381
1.909000	2.766958
1.910000	2.766958
1.911000	2.767602
1.912000	2.765670
1.913000	2.770501
1.914000	2.768246
1.915000	2.767602
1.916000	2.767602
1.917000	2.768246
1.918000	2.763415
1.919000	2.769213
1.920000	2.767924
1.921000	2.762771
1.922000	2.768246
1.923000	2.767602
1.924000	2.767280
1.925000	2.766636
1.926000	2.768891
1.927000	2.745056
1.928000	2.502196
1.929000	2.473529
1.930000	2.393005
1.931000	2.299598
1.932000	2.159487
1.933000	2.023885
1.934000	1.901167
1.935000	1.805827
1.936000	1.705977
1.937000	1.669258
1.938000	1.689228
1.939000	1.653154
1.940000	1.577461
1.941000	1.508533
1.942000	1.447013
1.943000	1.342977
1.944000	1.245704
1.945000	1.192881
1.946000	1.142312
1.947000	1.111069
1.948000	1.079503
1.949000	1.032156
1.950000	1.000590
1.951000	0.972246
1.952000	0.933273
1.953000	0.894299
1.954000	0.864989
1.955000	0.816675
1.956000	0.736151
1.957000	0.664002
1.958000	0.650152
1.959000	0.650796
1.960000	0.648541
1.961000	0.645965
1.962000	0.647253
1.963000	0.649186
1.964000	0.645965
1.965000	0.646609
1.966000	0.645320
1.967000	0.654339
1.968000	0.648863
1.969000	0.645965
1.970000	0.650474
1.971000	0.649830
1.972000	0.646931
1.973000	0.652084
1.974000	0.648863
1.975000	0.649186
1.976000	0.646931
1.977000	0.645320
1.978000	0.647253
1.979000	0.648541
1.980000	0.646609
1.981000	0.648219
1.982000	0.648863
1.983000	0.649830
1.984000	0.648541
1.985000	0.649186
1.986000	0.649830
1.987000	0.647575
1.988000	0.650152
1.989000	0.646931
1.990000	0.652406
1.991000	0.647253
1.992000	0.653373
1.993000	0.651762
1.994000	0.657560
1.995000	0.663680
1.996000	0.676564
1.997000	0.677852
1.998000	0.686548
1.999000	0.692024
2.000000	0.697500
2.001000	0.708451
2.002000	0.711350
2.003000	0.723911
2.004000	0.730353
2.005000	0.750967
2.006000	0.760308
2.007000	0.773836
2.008000	0.788008
2.009000	0.805401
2.010000	0.818285
2.011000	0.831491
2.012000	0.847273
2.013000	0.860157
2.014000	0.868854
2.015000	0.874007
2.016000	0.879805
2.017000	0.888179
2.018000	0.890756
2.019000	0.901707
2.020000	0.911048
2.021000	0.922966
2.022000	0.933917
2.023000	0.949699
2.024000	0.963872
2.025000	0.982231
2.026000	0.993182
2.027000	1.008643
2.028000	1.022815
2.029000	1.034088
2.030000	1.045361
2.031000	1.048582
2.032000	1.050515
2.033000	1.050515
2.034000	1.055991
2.035000	1.058567
2.036000	1.063721
2.037000	1.071451
2.038000	1.088200
2.039000	1.097541
2.040000	1.108170
2.041000	1.124597
2.042000	1.138447
2.043000	1.157450
2.044000	1.169046
2.045000	1.178709
2.046000	1.184506
2.047000	1.192881
2.048000	1.191592
2.049000	1.189982
2.050000	1.183218
2.051000	1.192236
2.052000	1.194491
2.053000	1.195780
2.054000	1.207053
2.055000	1.211884
2.056000	1.221225
2.057000	1.238940
2.058000	1.248603
2.059000	1.262131
2.060000	1.275015
2.061000	1.290153
2.062000	1.299494
2.063000	1.303037
2.064000	1.304003
2.065000	1.302393
2.066000	1.299172
2.067000	1.294018
2.068000	1.294340
2.069000	1.293052
2.070000	1.296917
2.071000	1.300782
2.072000	1.313666
2.073000	1.319786
2.074000	1.333958
2.075000	1.345231
2.076000	1.352317
2.077000	1.367778
2.078000	1.378407
2.079000	1.381950
2.080000	1.385171
2.081000	1.382916
2.082000	1.375186
2.083000	1.365523
2.084000	1.359403
2.085000	1.361336
2.086000	1.359081
2.087000	1.364235
2.088000	1.369388
2.089000	1.372931
2.090000	1.379373
2.091000	1.392901
2.092000	1.407073
2.093000	1.415126
2.094000	1.428332
2.095000	1.435096
2.096000	1.437672
2.097000	1.437672
2.098000	1.431875
2.099000	1.417703
2.100000	1.415448
2.101000	1.411583
2.102000	1.396766
2.103000	1.407073
2.104000	1.413193
2.105000	1.414482
2.106000	1.421568
2.107000	1.430908
2.108000	1.438961
2.109000	1.448946
2.110000	1.459575
2.111000	1.469882
2.112000	1.475035
2.113000	1.478256
2.114000	1.477934
2.115000	1.465695
2.116000	1.453777
2.117000	1.448946
2.118000	1.441538
2.119000	1.437028
2.120000	1.440893
2.121000	1.438961
2.122000	1.445403
2.123000	1.452811
2.124000	1.460541
2.125000	1.472781
2.126000	1.477934
2.127000	1.488241
2.128000	1.498226
2.129000	1.500481
2.130000	1.502091
2.131000	1.500159
2.132000	1.484698
2.133000	1.476968
2.134000	1.468916
2.135000	1.464084
2.136000	1.461830
2.137000	1.462152
2.138000	1.464084
2.139000	1.470526
2.140000	1.475035
2.141000	1.486309
2.142000	1.495649
2.143000	1.500481
2.144000	1.512398
2.145000	1.520451
2.146000	1.521417
2.147000	1.517874
2.148000	1.511110
2.149000	1.501447
2.150000	1.490496
2.151000	1.485987
2.152000	1.479867
2.153000	1.475035
2.154000	1.481155
2.155000	1.480511
2.156000	1.485020
2.157000	1.493073
2.158000	1.502091
2.159000	1.508855
2.160000	1.520129
2.161000	1.529147
2.162000	1.531402
2.163000	1.531402
2.164000	1.529791
2.165000	1.519484
2.166000	1.506923
2.167000	1.499192
2.168000	1.498548
2.169000	1.488563
2.170000	1.487275
2.171000	1.493073
2.172000	1.492106
2.173000	1.501769
2.174000	1.506923
2.175000	1.514975
2.176000	1.526248
2.177000	1.538810
2.178000	1.544286
2.179000	1.541387
2.180000	1.540743
2.181000	1.541387
2.182000	1.526571
2.183000	1.514009
2.184000	1.504024
2.185000	1.503702
2.186000	1.495649
2.187000	1.496616
2.188000	1.499192
2.189000	1.502091
2.190000	1.510466
2.191000	1.515297
2.192000	1.521417
2.193000	1.533979
2.194000	1.542675
2.195000	1.547829
2.196000	1.551694
2.197000	1.552982
2.198000	1.543319
2.199000	1.529147
2.200000	1.517874
2.201000	1.512720
2.202000	1.506601
2.203000	1.500481
2.204000	1.505634
2.205000	1.509177
2.206000	1.509822
2.207000	1.518518
2.208000	1.522383
2.209000	1.532690
2.210000	1.541709
2.211000	1.555559
2.212000	1.555237
2.213000	1.554915
2.214000	1.552338
2.215000	1.542031
2.216000	1.529791
2.217000	1.526571
2.218000	1.516586
2.219000	1.512076
2.220000	1.511110
2.221000	1.513365
2.222000	1.512720
2.223000	1.520451
2.224000	1.524960
2.225000	1.537522
2.226000	1.541387
2.227000	1.554915
2.228000	1.560390
2.229000	1.562967
2.230000	1.562323
2.231000	1.557169
2.232000	1.543642
2.233000	1.528503
2.234000	1.524960
2.235000	1.521417
2.236000	1.518840
2.237000	1.518196
2.238000	1.514331
2.239000	1.520451
2.240000	1.516908
2.241000	1.524316
2.242000	1.538810
2.243000	1.546862
2.244000	1.550728
2.245000	1.561357
2.246000	1.558780
2.247000	1.558136
2.248000	1.551372
2.249000	1.533012
2.250000	1.525282
2.251000	1.524316
2.252000	1.518196
2.253000	1.510788
2.254000	1.510788
2.255000	1.514331
2.256000	1.517874
2.257000	1.522061
2.258000	1.534623
2.259000	1.540743
2.260000	1.552338
2.261000	1.562001
2.262000	1.568443
2.263000	1.568121
2.264000	1.562323
2.265000	1.556525
2.266000	1.534945
2.267000	1.533012
2.268000	1.528503
2.269000	1.523027
2.270000	1.520773
2.271000	1.525604
2.272000	1.524316
2.273000	1.533012
2.274000	1.542675
2.275000	1.545252
2.276000	1.551372
2.277000	1.564256
2.278000	1.572952
2.279000	1.575207
2.280000	1.573274
2.281000	1.562967
2.282000	1.551694
2.283000	1.541709
2.284000	1.535267
2.285000	1.527859
2.286000	1.526248
2.287000	1.510788
2.288000	1.522383
2.289000	1.524960
2.290000	1.530436
2.291000	1.543642
2.292000	1.548473
2.293000	1.557169
2.294000	1.568765
2.295000	1.573274
2.296000	1.571986
2.297000	1.570375
2.298000	1.563289
2.299000	1.556203
2.300000	1.538810
2.301000	1.535589
2.302000	1.527215
2.303000	1.523027
2.304000	1.527537
2.305000	1.525926
2.306000	1.530436
2.307000	1.541065
2.308000	1.545574
2.309000	1.551050
2.310000	1.561679
2.311000	1.572308
2.312000	1.573596
2.313000	1.572952
2.314000	1.567799
2.315000	1.557169
2.316000	1.550083
2.317000	1.536233
2.318000	1.524316
2.319000	1.524638
2.320000	1.523672
2.321000	1.526893
2.322000	1.529147
2.323000	1.541387
2.324000	1.538488
2.325000	1.549761
2.326000	1.555881
2.327000	1.567477
2.328000	1.573274
2.329000	1.577784
2.330000	1.574563
2.331000	1.572630
2.332000	1.555559
2.333000	1.543642
2.334000	1.536878
2.335000	1.530758
2.336000	1.527537
2.337000	1.523350
2.338000	1.529791
2.339000	1.528825
2.340000	1.530114
2.341000	1.543642
2.342000	1.549117
2.343000	1.558458
2.344000	1.570375
2.345000	1.575851
2.346000	1.575851
2.347000	1.572630
2.348000	1.564900
2.349000	1.550083
2.350000	1.542031
2.351000	1.533334
2.352000	1.527537
2.353000	1.526571
2.354000	1.524638
2.355000	1.528181
2.356000	1.530436
2.357000	1.537522
2.358000	1.547507
2.359000	1.554593
2.360000	1.567799
2.361000	1.573274
2.362000	1.576817
2.363000	1.576173
2.364000	1.570697
2.365000	1.562323
2.366000	1.547829
2.367000	1.540743
2.368000	1.531402
2.369000	1.526571
2.370000	1.526571
2.371000	1.525282
2.372000	1.527537
2.373000	1.533979
2.374000	1.541709
2.375000	1.549761
2.376000	1.558780
2.377000	1.568121
2.378000	1.574885
2.379000	1.576495
2.380000	1.576495
2.381000	1.569731
2.382000	1.554271
2.383000	1.539132
2.384000	1.536233
2.385000	1.527859
2.386000	1.525926
2.387000	1.524638
2.388000	1.529791
2.389000	1.530758
2.390000	1.535589
2.391000	1.544608
2.392000	1.552338
2.393000	1.562323
2.394000	1.569409
2.395000	1.575851
2.396000	1.577461
2.397000	1.574885
2.398000	1.563289
2.399000	1.551372
2.400000	1.541387
2.401000	1.539454
2.402000	1.531080
2.403000	1.531080
2.404000	1.528181
2.405000	1.528503
2.406000	1.535267
2.407000	1.545574
2.408000	1.546218
2.409000	1.558458
2.410000	1.568121
2.411000	1.575851
2.412000	1.578428
2.413000	1.586158
2.414000	1.568765
2.415000	1.561357
2.416000	1.550083
2.417000	1.544930
2.418000	1.537522
2.419000	1.529147
2.420000	1.522705
2.421000	1.529147
2.422000	1.529469
2.423000	1.535911
2.424000	1.537522
2.425000	1.552338
2.426000	1.556847
2.427000	1.570375
2.428000	1.575529
2.429000	1.576495
2.430000	1.576173
2.431000	1.570697
2.432000	1.556847
2.433000	1.548151
2.434000	1.542031
2.435000	1.529469
2.436000	1.530114
2.437000	1.529469
2.438000	1.531402
2.439000	1.534623
2.440000	1.542031
2.441000	1.550728
2.442000	1.557492
2.443000	1.566188
2.444000	1.571986
2.445000	1.577784
2.446000	1.583581
2.447000	1.581327
2.448000	1.571986
2.449000	1.552982
2.450000	1.547507
2.451000	1.537844
2.452000	1.534301
2.453000	1.528825
2.454000	1.521417
2.455000	1.532368
2.456000	1.536555
2.457000	1.546540
2.458000	1.552660
2.459000	1.558458
2.460000	1.569731
2.461000	1.581004
2.462000	1.583903
2.463000	1.581327
2.464000	1.575529
2.465000	1.568443
2.466000	1.553949
2.467000	1.546218
2.468000	1.538810
2.469000	1.531402
2.470000	1.532368
2.471000	1.532368
2.472000	1.534301
2.473000	1.541387
2.474000	1.550083
2.475000	1.554593
2.476000	1.568121
2.477000	1.575207
2.478000	1.581971
2.479000	1.583903
2.480000	1.581971
2.481000	1.577139
2.482000	1.560390
2.483000	1.552660
2.484000	1.545574
2.485000	1.538166
2.486000	1.534301
2.487000	1.534623
2.488000	1.536233
2.489000	1.535911
2.490000	1.541709
2.491000	1.550728
2.492000	1.555881
2.493000	1.566188
2.494000	1.579394
2.495000	1.583581
2.496000	1.581327
2.497000	1.579394
2.498000	1.570053
2.499000	1.556525
2.500000	1.543642
2.501000	1.539776
2.502000	1.536233
2.503000	1.531402
2.504000	1.527537
2.505000	1.533334
2.506000	1.538488
2.507000	1.545574
2.508000	1.556525
2.509000	1.562967
2.510000	1.572952
2.511000	1.583259
2.512000	1.585514
2.513000	1.581327
2.514000	1.579716
2.515000	1.563289
2.516000	1.549761
2.517000	1.545252
2.518000	1.540098
2.519000	1.530114
2.520000	1.530114
2.521000	1.533012
2.522000	1.535589
2.523000	1.539776
2.524000	1.546540
2.525000	1.556847
2.526000	1.567154
2.527000	1.574240
2.528000	1.582293
2.529000	1.587768
2.530000	1.584548
2.531000	1.579072
2.532000	1.565222
2.533000	1.555559
2.534000	1.545896
2.535000	1.540098
2.536000	1.536233
2.537000	1.532046
2.538000	1.533334
2.539000	1.536555
2.540000	1.549761
2.541000	1.549439
2.542000	1.560390
2.543000	1.568443
2.544000	1.578750
2.545000	1.588091
2.546000	1.588413
2.547000	1.581004
2.548000	1.570375
2.549000	1.554915
2.550000	1.547185
2.551000	1.537522
2.552000	1.530758
2.553000	1.531402
2.554000	1.533657
2.555000	1.531724
2.556000	1.542353
2.557000	1.547829
2.558000	1.554593
2.559000	1.564900
2.560000	1.566510
2.561000	1.583259
2.562000	1.585836
2.563000	1.582293
2.564000	1.578428
2.565000	1.570053
2.566000	1.554271
2.567000	1.540421
2.568000	1.539776
2.569000	1.533657
2.570000	1.533657
2.571000	1.532368
2.572000	1.534623
2.573000	1.539454
2.574000	1.556203
2.575000	1.558136
2.576000	1.565544
2.577000	1.582937
2.578000	1.584870
2.579000	1.585192
2.580000	1.580360
2.581000	1.576817
2.582000	1.562323
2.583000	1.547829
2.584000	1.541387
2.585000	1.533012
2.586000	1.528503
2.587000	1.525926
2.588000	1.530758
2.589000	1.529791
2.590000	1.542997
2.591000	1.545252
2.592000	1.556203
2.593000	1.568121
2.594000	1.577461
2.595000	1.578106
2.596000	1.580682
2.597000	1.576173
2.598000	1.569731
2.599000	1.554271
2.600000	1.545252
2.601000	1.540098
2.602000	1.534301
2.603000	1.528503
2.604000	1.532046
2.605000	1.532690
2.606000	1.537522
2.607000	1.543319
2.608000	1.551050
2.609000	1.560713
2.610000	1.571020
2.611000	1.577784
2.612000	1.578750
2.613000	1.575207
2.614000	1.575529
2.615000	1.566832
2.616000	1.552660
2.617000	1.543964
2.618000	1.537200
2.619000	1.530436
2.620000	1.529791
2.621000	1.534623
2.622000	1.535267
2.623000	1.539454
2.624000	1.545574
2.625000	1.556525
2.626000	1.563611
2.627000	1.573596
2.628000	1.586480
2.629000	1.585836
2.630000	1.581649
2.631000	1.575529
2.632000	1.561035
2.633000	1.550728
2.634000	1.540098
2.635000	1.538166
2.636000	1.529469
2.637000	1.533012
2.638000	1.529469
2.639000	1.535589
2.640000	1.538166
2.641000	1.551694
2.642000	1.558780
2.643000	1.564256
2.644000	1.580038
2.645000	1.584548
2.646000	1.582293
2.647000	1.581649
2.648000	1.565866
2.649000	1.554915
2.650000	1.538488
2.651000	1.527859
2.652000	1.528503
2.653000	1.520451
2.654000	1.527215
2.655000	1.532690
2.656000	1.537522
2.657000	1.544608
2.658000	1.557492
2.659000	1.557169
2.660000	1.572630
2.661000	1.578750
2.662000	1.583903
2.663000	1.580682
2.664000	1.578106
2.665000	1.567154
2.666000	1.549761
2.667000	1.545574
2.668000	1.534301
2.669000	1.532368
2.670000	1.529469
2.671000	1.531402
2.672000	1.531080
2.673000	1.540743
2.674000	1.542675
2.675000	1.552016
2.676000	1.561357
2.677000	1.571664
2.678000	1.578428
2.679000	1.581971
2.680000	1.578750
2.681000	1.571986
2.682000	1.559424
2.683000	1.552982
2.684000	1.540421
2.685000	1.533334
2.686000	1.532690
2.687000	1.532690
2.688000	1.538166
2.689000	1.540098
2.690000	1.550406
2.691000	1.558136
2.692000	1.566510
2.693000	1.578106
2.694000	1.585192
2.695000	1.596143
2.696000	1.595821
2.697000	1.590667
2.698000	1.578750
2.699000	1.564578
2.700000	1.556203
2.701000	1.546862
2.702000	1.544608
2.703000	1.536878
2.704000	1.534301
2.705000	1.540743
2.706000	1.538166
2.707000	1.544608
2.708000	1.552660
2.709000	1.562001
2.710000	1.568765
2.711000	1.579072
2.712000	1.578106
2.713000	1.574885
2.714000	1.571986
2.715000	1.558458
2.716000	1.547829
2.717000	1.541709
2.718000	1.531724
2.719000	1.528181
2.720000	1.526893
2.721000	1.527215
2.722000	1.531724
2.723000	1.538166
2.724000	1.545252
2.725000	1.552016
2.726000	1.562001
2.727000	1.576173
2.728000	1.580038
2.729000	1.581649
2.730000	1.577461
2.731000	1.569409
2.732000	1.560068
2.733000	1.544608
2.734000	1.539776
2.735000	1.531402
2.736000	1.530758
2.737000	1.528181
2.738000	1.533657
2.739000	1.530436
2.740000	1.539132
2.741000	1.552660
2.742000	1.560068
2.743000	1.568765
2.744000	1.578428
2.745000	1.585192
2.746000	1.584225
2.747000	1.578750
2.748000	1.568765
2.749000	1.555559
2.750000	1.546218
2.751000	1.536555
2.752000	1.531080
2.753000	1.531402
2.754000	1.531402
2.755000	1.530758
2.756000	1.537522
2.757000	1.542353
2.758000	1.552982
2.759000	1.560713
2.760000	1.570375
2.761000	1.581649
2.762000	1.578750
2.763000	1.578428
2.764000	1.576495
2.765000	1.560390
2.766000	1.546540
2.767000	1.544608
2.768000	1.536233
2.769000	1.531402
2.770000	1.529469
2.771000	1.535267
2.772000	1.538166
2.773000	1.542675
2.774000	1.548473
2.775000	1.557814
2.776000	1.565866
2.777000	1.577139
2.778000	1.578428
2.779000	1.585192
2.780000	1.583259
2.781000	1.574563
2.782000	1.561679
2.783000	1.549117
2.784000	1.540743
2.785000	1.534301
2.786000	1.533334
2.787000	1.532690
2.788000	1.534623
2.789000	1.535911
2.790000	1.548795
2.791000	1.553304
2.792000	1.561035
2.793000	1.569087
2.794000	1.581971
2.795000	1.580682
2.796000	1.583259
2.797000	1.577139
2.798000	1.568443
2.799000	1.553949
2.800000	1.543319
2.801000	1.539132
2.802000	1.533012
2.803000	1.532368
2.804000	1.532046
2.805000	1.535911
2.806000	1.541387
2.807000	1.548151
2.808000	1.558136
2.809000	1.562323
2.810000	1.571664
2.811000	1.581649
2.812000	1.583581
2.813000	1.582293
2.814000	1.578750
2.815000	1.565866
2.816000	1.556203
2.817000	1.539776
2.818000	1.535267
2.819000	1.532046
2.820000	1.532690
2.821000	1.536555
2.822000	1.538488
2.823000	1.546862
2.824000	1.551372
2.825000	1.560068
2.826000	1.570697
2.827000	1.582293
2.828000	1.582937
2.829000	1.584225
2.830000	1.584548
2.831000	1.577461
2.832000	1.561357
2.833000	1.547507
2.834000	1.540098
2.835000	1.537200
2.836000	1.538166
2.837000	1.536233
2.838000	1.542031
2.839000	1.544608
2.840000	1.552660
2.841000	1.556525
2.842000	1.564578
2.843000	1.572630
2.844000	1.583903
2.845000	1.585836
2.846000	1.576173
2.847000	1.578106
2.848000	1.570375
2.849000	1.553949
2.850000	1.546218
2.851000	1.542031
2.852000	1.539132
2.853000	1.533979
2.854000	1.534945
2.855000	1.539776
2.856000	1.543319
2.857000	1.551050
2.858000	1.557814
2.859000	1.565866
2.860000	1.578106
2.861000	1.584870
2.862000	1.587768
2.863000	1.581327
2.864000	1.581004
2.865000	1.562001
2.866000	1.554915
2.867000	1.546540
2.868000	1.543642
2.869000	1.538166
2.870000	1.532046
2.871000	1.540098
2.872000	1.541387
2.873000	1.547507
2.874000	1.554593
2.875000	1.560068
2.876000	1.571986
2.877000	1.582937
2.878000	1.589379
2.879000	1.587768
2.880000	1.585514
2.881000	1.578106
2.882000	1.562323
2.883000	1.554593
2.884000	1.545896
2.885000	1.543319
2.886000	1.537200
2.887000	1.536878
2.888000	1.539454
2.889000	1.538488
2.890000	1.547829
2.891000	1.556525
2.892000	1.564256
2.893000	1.574563
2.894000	1.584225
2.895000	1.588735
2.896000	1.586802
2.897000	1.584870
2.898000	1.572630
2.899000	1.564900
2.900000	1.553949
2.901000	1.549117
2.902000	1.540421
2.903000	1.537522
2.904000	1.536233
2.905000	1.536233
2.906000	1.540098
2.907000	1.549439
2.908000	1.563933
2.909000	1.576817
2.910000	1.587124
2.911000	1.595499
2.912000	1.608060
2.913000	1.609349
2.914000	1.600974
2.915000	1.586802
2.916000	1.569731
2.917000	1.562967
2.918000	1.552338
2.919000	1.543319
2.920000	1.533979
2.921000	1.530436
2.922000	1.525282
2.923000	1.530436
2.924000	1.537844
2.925000	1.551372
2.926000	1.562645
2.927000	1.572952
2.928000	1.578750
2.929000	1.579716
2.930000	1.578106
2.931000	1.571664
2.932000	1.562645
2.933000	1.549117
2.934000	1.541065
2.935000	1.539776
2.936000	1.533657
2.937000	1.536878
2.938000	1.535911
2.939000	1.541709
2.940000	1.547829
2.941000	1.560068
2.942000	1.566188
2.943000	1.577139
2.944000	1.581327
2.945000	1.584225
2.946000	1.589379
2.947000	1.585514
2.948000	1.572952
2.949000	1.555559
2.950000	1.550728
2.951000	1.541065
2.952000	1.539454
2.953000	1.546540
2.954000	1.559746
2.955000	1.560068
2.956000	1.568121
2.957000	1.574563
2.958000	1.581971
2.959000	1.594532
2.960000	1.607416
2.961000	1.616435
2.962000	1.620944
2.963000	1.625776
2.964000	1.619334
2.965000	1.597753
2.966000	1.580360
2.967000	1.562323
2.968000	1.552338
2.969000	1.540743
2.970000	1.533979
2.971000	1.525282
2.972000	1.518518
2.973000	1.521739
2.974000	1.523027
2.975000	1.527215
2.976000	1.537522
2.977000	1.549761
2.978000	1.562967
2.979000	1.561357
2.980000	1.562645
2.981000	1.555237
2.982000	1.543964
2.983000	1.535589
2.984000	1.526248
2.985000	1.520129
2.986000	1.524960
2.987000	1.541709
2.988000	1.555881
2.989000	1.556847
2.990000	1.557169
2.991000	1.557492
2.992000	1.560068
2.993000	1.564900
2.994000	1.573918
2.995000	1.588413
2.996000	1.596143
2.997000	1.607094
2.998000	1.596465
2.999000	1.588091
3.000000	1.583581
3.001000	1.581004
3.002000	1.582615
3.003000	1.575851
3.004000	1.564578
3.005000	1.542031
3.006000	1.531402
3.007000	1.520129
3.008000	1.521417
3.009000	1.533334
3.010000	1.543964
3.011000	1.552660
3.012000	1.555559
3.013000	1.561357
3.014000	1.560390
3.015000	1.551372
3.016000	1.541065
3.017000	1.531724
3.018000	1.530114
3.019000	1.530114
3.020000	1.521095
3.021000	1.528503
3.022000	1.532690
3.023000	1.540098
3.024000	1.549761
3.025000	1.556203
3.026000	1.570375
3.027000	1.582937
3.028000	1.583581
3.029000	1.583903
3.030000	1.582937
3.031000	1.577461
3.032000	1.560068
3.033000	1.548473
3.034000	1.543642
3.035000	1.532046
3.036000	1.532690
3.037000	1.538166
3.038000	1.537844
3.039000	1.543319
3.040000	1.548473
3.041000	1.558458
3.042000	1.568443
3.043000	1.577461
3.044000	1.586802
3.045000	1.590667
3.046000	1.589701
3.047000	1.583903
3.048000	1.578106
3.049000	1.569409
3.050000	1.578750
3.051000	1.573274
3.052000	1.562323
3.053000	1.545896
3.054000	1.532046
3.055000	1.532690
3.056000	1.546540
3.057000	1.563611
3.058000	1.595177
3.059000	1.622555
3.060000	1.637693
3.061000	1.646390
3.062000	1.645423
3.063000	1.643813
3.064000	1.625131
3.065000	1.608060
3.066000	1.583259
3.067000	1.565544
3.068000	1.548473
3.069000	1.520129
3.070000	1.495649
3.071000	1.492751
3.072000	1.498226
3.073000	1.503380
3.074000	1.513043
3.075000	1.520451
3.076000	1.527537
3.077000	1.528503
3.078000	1.531080
3.079000	1.522383
3.080000	1.516263
3.081000	1.516908
3.082000	1.514653
3.083000	1.522705
3.084000	1.535267
3.085000	1.541065
3.086000	1.551050
3.087000	1.558136
3.088000	1.564578
3.089000	1.571986
3.090000	1.583581
3.091000	1.598075
3.092000	1.600008
3.093000	1.602585
3.094000	1.593566
3.095000	1.589701
3.096000	1.590023
3.097000	1.579072
3.098000	1.571664
3.099000	1.556203
3.100000	1.546218
3.101000	1.537522
3.102000	1.550406
3.103000	1.563611
3.104000	1.547829
3.105000	1.523027
3.106000	1.502736
3.107000	1.491784
3.108000	1.484698
3.109000	1.491784
3.110000	1.513365
3.111000	1.540743
3.112000	1.558136
3.113000	1.571020
3.114000	1.574885
3.115000	1.570697
3.116000	1.571664
3.117000	1.575529
3.118000	1.577784
3.119000	1.570053
3.120000	1.558780
3.121000	1.550406
3.122000	1.557492
3.123000	1.569087
3.124000	1.580360
3.125000	1.587124
3.126000	1.594855
3.127000	1.603873
3.128000	1.596143
3.129000	1.597109
3.130000	1.592922
3.131000	1.581971
3.132000	1.581649
3.133000	1.582293
3.134000	1.576495
3.135000	1.572952
3.136000	1.558780
3.137000	1.557492
3.138000	1.546862
3.139000	1.546862
3.140000	1.559424
3.141000	1.567154
3.142000	1.585192
3.143000	1.591312
3.144000	1.598398
3.145000	1.598075
3.146000	1.600652
3.147000	1.598398
3.148000	1.584870
3.149000	1.569087
3.150000	1.552338
3.151000	1.534623
3.152000	1.531724
3.153000	1.525604
3.154000	1.522705
3.155000	1.516908
3.156000	1.514331
3.157000	1.508533
3.158000	1.523672
3.159000	1.540743
3.160000	1.570375
3.161000	1.602907
3.162000	1.627708
3.163000	1.643491
3.164000	1.652509
3.165000	1.640592
3.166000	1.614502
3.167000	1.598720
3.168000	1.596787
3.169000	1.628030
3.170000	1.679888
3.171000	1.719183
3.172000	1.711131
3.173000	1.671835
3.174000	1.626420
3.175000	1.582615
3.176000	1.580682
3.177000	1.579716
3.178000	1.590023
3.179000	1.587768
3.180000	1.578750
3.181000	1.566832
3.182000	1.548473
3.183000	1.535589
3.184000	1.518518
3.185000	1.495327
3.186000	1.438639
3.187000	1.401598
3.188000	1.371321
3.189000	1.376797
3.190000	1.400954
3.191000	1.437350
3.192000	1.469560
3.193000	1.495005
3.194000	1.521739
3.195000	1.536878
3.196000	1.554271
3.197000	1.555237
3.198000	1.541065
3.199000	1.524960
3.200000	1.510144
3.201000	1.501769
3.202000	1.508855
3.203000	1.513365
3.204000	1.528825
3.205000	1.535267
3.206000	1.557169
3.207000	1.580682
3.208000	1.620622
3.209000	1.647034
3.210000	1.664105
3.211000	1.673768
3.212000	1.671191
3.213000	1.637371
3.214000	1.589701
3.215000	1.533334
3.216000	1.505634
3.217000	1.492428
3.218000	1.494361
3.219000	1.491462
3.220000	1.495005
3.221000	1.497582
3.222000	1.495005
3.223000	1.494361
3.224000	1.488563
3.225000	1.473747
3.226000	1.480189
3.227000	1.508211
3.228000	1.539776
3.229000	1.564578
3.230000	1.593888
3.231000	1.622555
3.232000	1.641558
3.233000	1.642202
3.234000	1.631895
3.235000	1.607094
3.236000	1.579072
3.237000	1.555237
3.238000	1.541387
3.239000	1.540743
3.240000	1.536878
3.241000	1.536233
3.242000	1.519484
3.243000	1.537200
3.244000	1.559424
3.245000	1.581649
3.246000	1.599686
3.247000	1.605162
3.248000	1.605806
3.249000	1.598398
3.250000	1.600652
3.251000	1.610315
3.252000	1.628674
3.253000	1.619334
3.254000	1.604839
3.255000	1.600974
3.256000	1.637693
3.257000	1.680210
3.258000	1.701468
3.259000	1.703078
3.260000	1.708876
3.261000	1.700179
3.262000	1.673446
3.263000	1.643813
3.264000	1.611603
3.265000	1.562645
3.266000	1.539776
3.267000	1.527537
3.268000	1.514653
3.269000	1.514331
3.270000	1.527859
3.271000	1.517552
3.272000	1.511432
3.273000	1.493717
3.274000	1.491462
3.275000	1.515619
3.276000	1.535267
3.277000	1.530114
3.278000	1.532046
3.279000	1.523027
3.280000	1.507245
3.281000	1.473425
3.282000	1.441215
3.283000	1.437995
3.284000	1.452167
3.285000	1.482444
3.286000	1.521095
3.287000	1.550083
3.288000	1.550728
3.289000	1.523994
3.290000	1.517552
3.291000	1.521739
3.292000	1.523994
3.293000	1.521739
3.294000	1.539454
3.295000	1.560713
3.296000	1.589057
3.297000	1.624165
3.298000	1.630285
3.299000	1.638981
3.300000	1.678921
3.301000	1.698247
3.302000	1.674734
3.303000	1.641236
3.304000	1.607094
3.305000	1.587446
3.306000	1.580360
3.307000	1.566832
3.308000	1.536878
3.309000	1.502091
3.310000	1.476002
3.311000	1.473103
3.312000	1.471492
3.313000	1.480189
3.314000	1.502091
3.315000	1.496938
3.316000	1.463762
3.317000	1.442504
3.318000	1.467949
3.319000	1.495649
3.320000	1.525926
3.321000	1.566188
3.322000	1.587124
3.323000	1.614180
3.324000	1.640592
3.325000	1.652509
3.326000	1.657341
3.327000	1.660562
3.328000	1.653154
3.329000	1.652509
3.330000	1.649611
3.331000	1.639304
3.332000	1.618690
3.333000	1.598720
3.334000	1.574240
3.335000	1.552982
3.336000	1.539454
3.337000	1.534623
3.338000	1.534301
3.339000	1.542353
3.340000	1.540098
3.341000	1.559424
3.342000	1.579072
3.343000	1.598398
3.344000	1.610959
3.345000	1.625454
3.346000	1.659273
3.347000	1.698569
3.348000	1.716606
3.349000	1.731423
3.350000	1.734966
3.351000	1.726591
3.352000	1.701468
3.353000	1.660240
3.354000	1.620944
3.355000	1.576495
3.356000	1.551050
3.357000	1.540743
3.358000	1.525604
3.359000	1.510144
3.360000	1.528825
3.361000	1.556203
3.362000	1.541387
3.363000	1.531402
3.364000	1.521417
3.365000	1.546540
3.366000	1.569731
3.367000	1.560068
3.368000	1.546218
3.369000	1.538166
3.370000	1.517230
3.371000	1.494039
3.372000	1.470848
3.373000	1.460541
3.374000	1.467627
3.375000	1.492751
3.376000	1.515941
3.377000	1.513687
3.378000	1.537522
3.379000	1.568765
3.380000	1.577139
3.381000	1.567154
3.382000	1.570375
3.383000	1.571664
3.384000	1.596143
3.385000	1.634794
3.386000	1.650577
3.387000	1.661206
3.388000	1.678921
3.389000	1.701790
3.390000	1.740119
3.391000	1.767497
3.392000	1.762022
3.393000	1.737865
3.394000	1.705977
3.395000	1.665715
3.396000	1.607738
3.397000	1.553949
3.398000	1.491140
3.399000	1.429942
3.400000	1.387104
3.401000	1.371643
3.402000	1.380984
3.403000	1.385171
3.404000	1.361658
3.405000	1.361980
3.406000	1.420924
3.407000	1.462796
3.408000	1.498548
3.409000	1.546540
3.410000	1.583581
3.411000	1.603229
3.412000	1.629319
3.413000	1.637371
3.414000	1.625776
3.415000	1.608705
3.416000	1.599686
3.417000	1.579072
3.418000	1.540421
3.419000	1.491140
3.420000	1.443792
3.421000	1.422212
3.422000	1.431231
3.423000	1.446047
3.424000	1.471814
3.425000	1.495005
3.426000	1.514653
3.427000	1.549439
3.428000	1.606450
3.429000	1.655086
3.430000	1.688262
3.431000	1.708232
3.432000	1.705011
3.433000	1.705977
3.434000	1.689550
3.435000	1.646390
3.436000	1.611603
3.437000	1.591312
3.438000	1.580682
3.439000	1.560068
3.440000	1.549117
3.441000	1.549439
3.442000	1.568765
3.443000	1.597753
3.444000	1.604839
3.445000	1.581327
3.446000	1.574563
3.447000	1.577784
3.448000	1.581971
3.449000	1.566832
3.450000	1.556525
3.451000	1.549761
3.452000	1.618690
3.453000	1.703078
3.454000	1.748494
3.455000	1.765565
3.456000	1.748494
3.457000	1.690195
3.458000	1.642202
3.459000	1.572630
3.460000	1.524638
3.461000	1.502736
3.462000	1.488885
3.463000	1.479867
3.464000	1.476324
3.465000	1.423178
3.466000	1.380340
3.467000	1.393868
3.468000	1.451200
3.469000	1.515941
3.470000	1.582615
3.471000	1.607416
3.472000	1.619656
3.473000	1.639948
3.474000	1.633506
3.475000	1.631573
3.476000	1.623521
3.477000	1.599686
3.478000	1.561357
3.479000	1.520451
3.480000	1.493717
3.481000	1.492428
3.482000	1.509822
3.483000	1.551372
3.484000	1.582615
3.485000	1.610637
3.486000	1.625131
3.487000	1.627064
3.488000	1.608705
3.489000	1.589701
3.490000	1.603551
3.491000	1.643491
3.492000	1.669903
3.493000	1.687618
3.494000	1.707266
3.495000	1.713063
3.496000	1.719827
3.497000	1.709842
3.498000	1.675056
3.499000	1.657663
3.500000	1.630929
3.501000	1.599686
3.502000	1.549761
3.503000	1.495972
3.504000	1.443470
3.505000	1.422856
3.506000	1.413515
3.507000	1.424789
3.508000	1.456676
3.509000	1.525604
3.510000	1.588413
3.511000	1.618690
3.512000	1.633828
3.513000	1.647034
3.514000	1.624809
3.515000	1.575529
3.516000	1.513687
3.517000	1.483088
3.518000	1.493073
3.519000	1.518518
3.520000	1.552660
3.521000	1.595821
3.522000	1.611281
3.523000	1.590989
3.524000	1.580360
3.525000	1.587446
3.526000	1.598075
3.527000	1.574885
3.528000	1.517230
3.529000	1.480511
3.530000	1.442504
3.531000	1.397733
3.532000	1.375508
3.533000	1.379695
3.534000	1.411905
3.535000	1.454099
3.536000	1.535589
3.537000	1.605162
3.538000	1.677633
3.539000	1.711775
3.540000	1.730778
3.541000	1.725947
3.542000	1.684397
3.543000	1.657985
3.544000	1.677633
3.545000	1.680854
3.546000	1.694382
3.547000	1.704367
3.548000	1.657019
3.549000	1.613214
3.550000	1.556847
3.551000	1.502091
3.552000	1.475680
3.553000	1.509177
3.554000	1.546218
3.555000	1.632540
3.556000	1.735610
3.557000	1.770074
3.558000	1.724659
3.559000	1.671191
3.560000	1.651865
3.561000	1.623199
3.562000	1.597753
3.563000	1.582615
3.564000	1.576495
3.565000	1.586480
3.566000	1.562645
3.567000	1.543319
3.568000	1.554271
3.569000	1.571020
3.570000	1.592278
3.571000	1.654442
3.572000	1.712097
3.573000	1.727880
3.574000	1.695026
3.575000	1.619012
3.576000	1.501447
3.577000	1.412871
3.578000	1.380984
3.579000	1.353606
3.580000	1.330093
3.581000	1.352962
3.582000	1.352639
3.583000	1.392257
3.584000	1.490174
3.585000	1.600330
3.586000	1.681176
3.587000	1.721760
3.588000	1.699213
3.589000	1.643169
3.590000	1.577784
3.591000	1.509499
3.592000	1.441860
3.593000	1.389358
3.594000	1.351351
3.595000	1.340078
3.596000	1.332670
3.597000	1.341688
3.598000	1.357793
3.599000	1.384205
3.600000	1.409972
3.601000	1.429298
3.602000	1.420279
3.603000	1.448302
3.604000	1.505956
3.605000	1.575207
3.606000	1.641236
3.607000	1.746883
3.608000	1.941428
3.609000	2.172048
3.610000	2.280272
3.611000	2.292512
3.612000	2.220040
3.613000	2.052229
3.614000	1.824186
3.615000	1.610959
3.616000	1.449268
3.617000	1.397733
3.618000	1.381950
3.619000	1.370033
3.620000	1.345876
3.621000	1.347164
3.622000	1.399343
3.623000	1.450878
3.624000	1.449268
3.625000	1.449590
3.626000	1.474069
3.627000	1.485342
3.628000	1.511432
3.629000	1.543642
3.630000	1.564256
3.631000	1.589379
3.632000	1.613214
3.633000	1.609349
3.634000	1.607094
3.635000	1.618367
3.636000	1.664749
3.637000	1.698891
3.638000	1.713707
3.639000	1.672801
3.640000	1.643169
3.641000	1.658307
3.642000	1.683431
3.643000	1.720471
3.644000	1.698247
3.645000	1.625454
3.646000	1.562001
3.647000	1.517874
3.648000	1.456032
3.649000	1.388070
3.650000	1.351029
3.651000	1.344587
3.652000	1.332992
3.653000	1.303037
3.654000	1.302071
3.655000	1.325906
3.656000	1.390002
3.657000	1.504668
3.658000	1.650577
3.659000	1.778771
3.660000	1.860261
3.661000	1.906320
3.662000	1.917271
3.663000	1.867991
3.664000	1.772973
3.665000	1.700824
3.666000	1.664749
3.667000	1.618690
3.668000	1.558136
3.669000	1.447013
3.670000	1.355538
3.671000	1.355538
3.672000	1.450878
3.673000	1.524960
3.674000	1.514975
3.675000	1.536233
3.676000	1.555881
3.677000	1.540421
3.678000	1.601296
3.679000	1.730134
3.680000	1.946260
3.681000	2.117614
3.682000	2.166895
3.683000	2.144670
3.684000	2.049974
3.685000	1.928867
3.686000	1.764598
3.687000	1.616113
3.688000	1.476324
3.689000	1.339434
3.690000	1.260843
3.691000	1.250536
3.692000	1.281457
3.693000	1.340078
3.694000	1.410616
3.695000	1.409972
3.696000	1.370999
3.697000	1.363913
3.698000	1.325261
3.699000	1.311734
3.700000	1.348774
3.701000	1.393545
3.702000	1.453455
3.703000	1.520773
3.704000	1.581327
3.705000	1.611281
3.706000	1.633828
3.707000	1.635116
3.708000	1.636083
3.709000	1.655086
3.710000	1.668292
3.711000	1.664427
3.712000	1.650255
3.713000	1.628352
3.714000	1.585836
3.715000	1.535589
3.716000	1.516908
3.717000	1.540743
3.718000	1.566188
3.719000	1.580038
3.720000	1.576173
3.721000	1.528825
3.722000	1.510788
3.723000	1.471170
3.724000	1.450556
3.725000	1.433807
3.726000	1.422856
3.727000	1.449590
3.728000	1.410939
3.729000	1.414804
3.730000	1.474391
3.731000	1.508533
3.732000	1.500159
3.733000	1.511754
3.734000	1.518518
3.735000	1.553626
3.736000	1.615791
3.737000	1.672801
3.738000	1.703078
3.739000	1.749138
3.740000	1.760411
3.741000	1.772651
3.742000	1.802283
3.743000	1.767175
3.744000	1.659918
3.745000	1.548473
3.746000	1.449268
3.747000	1.377119
3.748000	1.344265
3.749000	1.374220
3.750000	1.436384
3.751000	1.465695
3.752000	1.457320
3.753000	1.482766
3.754000	1.513043
3.755000	1.532046
3.756000	1.528181
3.757000	1.544608
3.758000	1.647678
3.759000	1.771684
3.760000	1.901167
3.761000	1.994252
3.762000	1.992964
3.763000	1.953668
3.764000	1.870245
3.765000	1.732067
3.766000	1.606450
3.767000	1.503702
3.768000	1.384849
3.769000	1.275981
3.770000	1.263097
3.771000	1.221869
3.772000	1.200933
3.773000	1.235719
3.774000	1.294985
3.775000	1.343943
3.776000	1.352317
3.777000	1.360048
3.778000	1.394834
3.779000	1.406751
3.780000	1.377119
3.781000	1.356505
3.782000	1.402886
3.783000	1.420601
3.784000	1.433163
3.785000	1.443470
3.786000	1.455388
3.787000	1.510144
3.788000	1.619978
3.789000	1.695348
3.790000	1.713385
3.791000	1.704367
3.792000	1.660562
3.793000	1.606128
3.794000	1.603551
3.795000	1.619012
3.796000	1.634150
3.797000	1.618690
3.798000	1.630607
3.799000	1.678921
3.800000	1.713063
3.801000	1.729812
3.802000	1.703400
3.803000	1.653154
3.804000	1.612248
3.805000	1.594210
3.806000	1.588091
3.807000	1.552660
3.808000	1.536233
3.809000	1.549117
3.810000	1.582293
3.811000	1.581971
3.812000	1.566510
3.813000	1.530436
3.814000	1.475357
3.815000	1.426077
3.816000	1.401276
3.817000	1.398699
3.818000	1.445081
3.819000	1.609671
3.820000	1.790044
3.821000	1.913406
3.822000	1.953990
3.823000	1.915661
3.824000	1.817744
3.825000	1.700179
3.826000	1.565866
3.827000	1.458609
3.828000	1.351029
3.829000	1.255689
3.830000	1.221869
3.831000	1.290475
3.832000	1.368100
3.833000	1.419313
3.834000	1.446691
3.835000	1.451200
3.836000	1.462796
3.837000	1.460863
3.838000	1.512398
3.839000	1.594855
3.840000	1.642202
3.841000	1.639948
3.842000	1.643813
3.843000	1.695670
3.844000	1.783602
3.845000	1.846410
3.846000	1.856395
3.847000	1.840935
3.848000	1.848665
3.849000	1.789400
3.850000	1.589701
3.851000	1.455388
3.852000	1.395156
3.853000	1.294018
3.854000	1.303681
3.855000	1.361336
3.856000	1.399021
3.857000	1.441215
3.858000	1.440571
3.859000	1.471170
3.860000	1.541387
3.861000	1.587446
3.862000	1.655408
3.863000	1.757190
3.864000	1.819032
3.865000	1.857684
3.866000	1.941750
3.867000	1.914372
3.868000	1.861549
3.869000	1.705655
3.870000	1.491784
3.871000	1.350063
3.872000	1.293052
3.873000	1.231854
3.874000	1.208341
3.875000	1.231532
3.876000	1.300460
3.877000	1.373254
3.878000	1.430586
3.879000	1.439927
3.880000	1.450234
3.881000	1.458931
3.882000	1.439283
3.883000	1.451522
3.884000	1.502091
3.885000	1.596143
3.886000	1.736576
3.887000	1.842867
3.888000	1.845444
3.889000	1.783924
3.890000	1.693738
3.891000	1.585192
3.892000	1.485987
3.893000	1.409006
3.894000	1.330415
3.895000	1.319786
3.896000	1.396766
3.897000	1.448946
3.898000	1.439605
3.899000	1.440893
3.900000	1.455066
3.901000	1.464084
3.902000	1.479867
3.903000	1.497904
3.904000	1.510466
3.905000	1.520451
3.906000	1.533979
3.907000	1.546862
3.908000	1.558780
3.909000	1.568121
3.910000	1.587446
3.911000	1.595821
3.912000	1.611603
3.913000	1.616757
3.914000	1.654764
3.915000	1.654442
3.916000	1.609671
3.917000	1.553304
3.918000	1.498548
3.919000	1.497582
3.920000	1.501125
3.921000	1.492428
3.922000	1.493717
3.923000	1.531724
3.924000	1.537844
3.925000	1.566188
3.926000	1.601941
3.927000	1.619656
3.928000	1.625454
3.929000	1.627386
3.930000	1.639304
3.931000	1.660884
3.932000	1.698569
3.933000	1.745595
3.934000	1.763310
3.935000	1.719827
3.936000	1.674734
3.937000	1.677311
3.938000	1.701146
3.939000	1.733033
3.940000	1.793909
3.941000	1.818388
3.942000	1.748172
3.943000	1.671835
3.944000	1.618690
3.945000	1.537200
3.946000	1.453777
3.947000	1.394190
3.948000	1.318820
3.949000	1.346842
3.950000	1.414482
3.951000	1.499837
3.952000	1.588413
3.953000	1.684397
3.954000	1.756546
3.955000	1.841901
3.956000	1.878942
3.957000	1.855107
3.958000	1.726913
3.959000	1.528181
3.960000	1.377441
3.961000	1.287899
3.962000	1.258588
3.963000	1.315599
3.964000	1.429942
3.965000	1.524960
3.966000	1.573274
3.967000	1.548473
3.968000	1.527215
3.969000	1.461507
3.970000	1.408040
3.971000	1.407718
3.972000	1.420279
3.973000	1.464084
3.974000	1.495327
3.975000	1.506601
3.976000	1.519162
3.977000	1.541387
3.978000	1.588091
3.979000	1.642847
3.980000	1.719505
3.981000	1.749782
3.982000	1.736576
3.983000	1.709198
3.984000	1.682142
3.985000	1.644457
3.986000	1.579072
3.987000	1.513365
3.988000	1.477612
3.989000	1.465695
3.990000	1.473425
3.991000	1.497260
3.992000	1.525926
3.993000	1.557492
3.994000	1.578750
3.995000	1.594532
3.996000	1.603551
3.997000	1.592278
3.998000	1.582293
3.999000	1.569409
4.000000	1.551050
4.001000	1.516908
4.002000	1.483732
4.003000	1.475680
4.004000	1.493717
4.005000	1.503058
4.006000	1.539132
4.007000	1.593566
4.008000	1.597109
4.009000	1.623521
4.010000	1.631895
4.011000	1.626420
4.012000	1.607738
4.013000	1.613214
4.014000	1.610315
4.015000	1.602585
4.016000	1.589379
4.017000	1.550083
4.018000	1.535911
4.019000	1.536233
4.020000	1.526571
4.021000	1.474069
4.022000	1.458286
4.023000	1.475680
4.024000	1.492106
4.025000	1.518518
4.026000	1.546218
4.027000	1.591956
4.028000	1.607738
4.029000	1.601619
4.030000	1.566832
4.031000	1.523350
4.032000	1.508211
4.033000	1.520129
4.034000	1.507245
4.035000	1.561035
4.036000	1.666037
4.037000	1.772973
4.038000	1.848343
4.039000	1.881841
4.040000	1.836426
4.041000	1.740119
4.042000	1.602585
4.043000	1.462152
4.044000	1.361658
4.045000	1.322685
4.046000	1.330093
4.047000	1.332025
4.048000	1.323329
4.049000	1.364879
4.050000	1.430586
4.051000	1.542353
4.052000	1.675700
4.053000	1.793265
4.054000	1.842545
4.055000	1.829662
4.056000	1.791976
4.057000	1.715318
4.058000	1.612248
4.059000	1.546862
4.060000	1.548151
4.061000	1.563289
4.062000	1.542675
4.063000	1.507889
4.064000	1.504346
4.065000	1.482444
4.066000	1.445403
4.067000	1.364235
4.068000	1.317531
4.069000	1.318175
4.070000	1.305292
4.071000	1.338467
4.072000	1.393868
4.073000	1.442826
4.074000	1.502736
4.075000	1.540098
4.076000	1.568121
4.077000	1.603229
4.078000	1.612570
4.079000	1.622877
4.080000	1.622555
4.081000	1.629319
4.082000	1.617079
4.083000	1.624165
4.084000	1.626098
4.085000	1.617401
4.086000	1.604517
4.087000	1.599686
4.088000	1.587768
4.089000	1.566510
4.090000	1.526248
4.091000	1.491140
4.092000	1.465695
4.093000	1.457642
4.094000	1.517874
4.095000	1.587768
4.096000	1.633184
4.097000	1.662172
4.098000	1.673446
4.099000	1.665071
4.100000	1.648322
4.101000	1.597431
4.102000	1.599686
4.103000	1.609993
4.104000	1.613858
4.105000	1.604839
4.106000	1.589379
4.107000	1.588413
4.108000	1.572952
4.109000	1.594855
4.110000	1.636727
4.111000	1.669903
4.112000	1.698247
4.113000	1.672801
4.114000	1.608705
4.115000	1.545574
4.116000	1.510144
4.117000	1.510144
4.118000	1.486309
4.119000	1.480511
4.120000	1.443470
4.121000	1.411905
4.122000	1.359081
4.123000	1.371965
4.124000	1.452167
4.125000	1.612892
4.126000	1.796808
4.127000	1.881519
4.128000	1.881519
4.129000	1.816134
4.130000	1.727558
4.131000	1.679888
4.132000	1.619978
4.133000	1.570697
4.134000	1.579716
4.135000	1.578106
4.136000	1.581327
4.137000	1.609671
4.138000	1.655408
4.139000	1.693738
4.140000	1.681820
4.141000	1.661850
4.142000	1.625776
4.143000	1.593244
4.144000	1.560068
4.145000	1.510466
4.146000	1.488563
4.147000	1.501447
4.148000	1.539132
4.149000	1.543642
4.150000	1.555559
4.151000	1.580038
4.152000	1.586802
4.153000	1.556847
4.154000	1.528825
4.155000	1.526248
4.156000	1.559424
4.157000	1.591956
4.158000	1.607416
4.159000	1.617723
4.160000	1.636727
4.161000	1.639626
4.162000	1.608705
4.163000	1.558780
4.164000	1.547829
4.165000	1.595499
4.166000	1.593888
4.167000	1.639948
4.168000	1.656697
4.169000	1.636083
4.170000	1.611926
4.171000	1.563289
4.172000	1.489852
4.173000	1.443792
4.174000	1.439605
4.175000	1.466661
4.176000	1.502091
4.177000	1.558780
4.178000	1.592600
4.179000	1.625776
4.180000	1.647356
4.181000	1.650255
4.182000	1.660562
4.183000	1.778771
4.184000	1.875077
4.185000	1.888283
4.186000	1.832560
4.187000	1.747205
4.188000	1.677955
4.189000	1.619334
4.190000	1.533979
4.191000	1.482121
4.192000	1.485665
4.193000	1.506923
4.194000	1.507567
4.195000	1.459253
4.196000	1.381950
4.197000	1.357471
4.198000	1.380984
4.199000	1.418025
4.200000	1.445725
4.201000	1.483088
4.202000	1.507567
4.203000	1.508533
4.204000	1.507245
4.205000	1.514331
4.206000	1.506923
4.207000	1.485665
4.208000	1.452167
4.209000	1.452811
4.210000	1.495005
4.211000	1.540421
4.212000	1.622555
4.213000	1.717573
4.214000	1.724014
4.215000	1.667648
4.216000	1.609993
4.217000	1.582615
4.218000	1.551694
4.219000	1.512720
4.220000	1.525282
4.221000	1.621266
4.222000	1.662494
4.223000	1.655730
4.224000	1.607738
4.225000	1.560068
4.226000	1.579716
4.227000	1.570053
4.228000	1.564578
4.229000	1.548473
4.230000	1.528503
4.231000	1.514975
4.232000	1.506923
4.233000	1.517552
4.234000	1.505312
4.235000	1.515619
4.236000	1.532368
4.237000	1.533657
4.238000	1.494039
4.239000	1.471170
4.240000	1.470526
4.241000	1.446047
4.242000	1.458609
4.243000	1.527537
4.244000	1.586802
4.245000	1.586158
4.246000	1.607416
4.247000	1.638981
4.248000	1.629963
4.249000	1.639304
4.250000	1.646712
4.251000	1.631573
4.252000	1.621910
4.253000	1.602263
4.254000	1.610637
4.255000	1.604839
4.256000	1.541065
4.257000	1.441215
4.258000	1.400309
4.259000	1.389358
4.260000	1.407718
4.261000	1.479867
4.262000	1.551372
4.263000	1.581004
4.264000	1.571664
4.265000	1.532690
4.266000	1.530758
4.267000	1.616435
4.268000	1.701468
4.269000	1.712097
4.270000	1.695348
4.271000	1.637049
4.272000	1.562001
4.273000	1.478901
4.274000	1.444114
4.275000	1.363269
4.276000	1.311089
4.277000	1.308190
4.278000	1.336535
4.279000	1.375830
4.280000	1.412549
4.281000	1.491462
4.282000	1.599686
4.283000	1.664427
4.284000	1.655086
4.285000	1.600652
4.286000	1.576495
4.287000	1.656053
4.288000	1.750748
4.289000	1.742374
4.290000	1.670225
4.291000	1.562323
4.292000	1.508533
4.293000	1.472459
4.294000	1.402886
4.295000	1.368100
4.296000	1.405785
4.297000	1.467949
4.298000	1.519807
4.299000	1.547507
4.300000	1.609349
4.301000	1.676989
4.302000	1.692771
4.303000	1.636727
4.304000	1.579394
4.305000	1.562323
4.306000	1.572952
4.307000	1.587446
4.308000	1.562323
4.309000	1.545896
4.310000	1.490818
4.311000	1.458609
4.312000	1.471814
4.313000	1.444436
4.314000	1.429620
4.315000	1.456676
4.316000	1.479545
4.317000	1.439927
4.318000	1.463118
4.319000	1.526893
4.320000	1.584548
4.321000	1.655086
4.322000	1.661528
4.323000	1.560713
4.324000	1.545252
4.325000	1.555237
4.326000	1.567477
4.327000	1.578750
4.328000	1.589057
4.329000	1.675056
4.330000	1.701790
4.331000	1.623521
4.332000	1.627708
4.333000	1.613214
4.334000	1.507245
4.335000	1.376152
4.336000	1.232820
4.337000	1.170334
4.338000	1.223480
4.339000	1.383238
4.340000	1.496294
4.341000	1.587124
4.342000	1.679565
4.343000	1.751393
4.344000	1.788433
4.345000	1.774905
4.346000	1.749460
4.347000	1.688584
4.348000	1.634150
4.349000	1.577139
4.350000	1.520129
4.351000	1.533012
4.352000	1.591956
4.353000	1.625131
4.354000	1.636083
4.355000	1.686651
4.356000	1.756868
4.357000	1.827407
4.358000	1.782636
4.359000	1.686651
4.360000	1.623199
4.361000	1.577139
4.362000	1.550728
4.363000	1.560390
4.364000	1.496294
4.365000	1.441538
4.366000	1.387104
4.367000	1.376152
4.368000	1.348774
4.369000	1.344587
4.370000	1.408684
4.371000	1.455710
4.372000	1.481477
4.373000	1.536878
4.374000	1.575207
4.375000	1.580038
4.376000	1.486631
4.377000	1.362624
4.378000	1.275659
4.379000	1.286932
4.380000	1.402886
4.381000	1.590023
4.382000	1.773295
4.383000	1.895047
4.384000	1.793265
4.385000	1.685685
4.386000	1.620300
4.387000	1.611603
4.388000	1.638981
4.389000	1.632862
4.390000	1.584548
4.391000	1.538810
4.392000	1.545574
4.393000	1.605162
4.394000	1.600008
4.395000	1.517230
4.396000	1.420279
4.397000	1.304970
4.398000	1.241195
4.399000	1.289509
4.400000	1.376152
4.401000	1.449912
4.402000	1.466983
4.403000	1.490818
4.404000	1.572630
4.405000	1.657985
4.406000	1.692771
4.407000	1.680854
4.408000	1.605162
4.409000	1.504990
4.410000	1.343943
4.411000	1.188693
4.412000	1.100762
4.413000	1.158417
4.414000	1.308835
4.415000	1.443148
4.416000	1.585192
4.417000	1.682142
4.418000	1.783280
4.419000	1.853174
4.420000	1.835137
4.421000	1.820643
4.422000	1.818388
4.423000	1.855429
4.424000	1.869923
4.425000	1.844478
4.426000	1.806793
4.427000	1.763310
4.428000	1.696636
4.429000	1.642847
4.430000	1.625776
4.431000	1.680532
4.432000	1.690517
4.433000	1.671513
4.434000	1.609027
4.435000	1.526248
4.436000	1.444436
4.437000	1.363269
4.438000	1.363913
4.439000	1.390002
4.440000	1.430264
4.441000	1.510788
4.442000	1.602907
4.443000	1.592922
4.444000	1.556525
4.445000	1.507889
4.446000	1.573596
4.447000	1.615147
4.448000	1.569087
4.449000	1.566188
4.450000	1.638659
4.451000	1.712741
4.452000	1.747527
4.453000	1.733677
4.454000	1.705333
4.455000	1.676344
4.456000	1.634794
4.457000	1.596787
4.458000	1.563611
4.459000	1.537522
4.460000	1.509177
4.461000	1.524638
4.462000	1.571664
4.463000	1.612570
4.464000	1.646068
4.465000	1.628030
4.466000	1.544608
4.467000	1.429942
4.468000	1.325906
4.469000	1.246670
4.470000	1.220581
4.471000	1.257300
4.472000	1.395800
4.473000	1.544608
4.474000	1.604195
4.475000	1.643169
4.476000	1.700179
4.477000	1.758156
4.478000	1.818066
4.479000	1.855107
4.480000	1.827085
4.481000	1.656697
4.482000	1.526248
4.483000	1.487597
4.484000	1.442182
4.485000	1.498226
4.486000	1.563289
4.487000	1.576173
4.488000	1.573596
4.489000	1.611603
4.490000	1.681176
4.491000	1.728524
4.492000	1.686974
4.493000	1.590023
4.494000	1.524316
4.495000	1.517552
4.496000	1.580682
4.497000	1.617401
4.498000	1.571342
4.499000	1.511754
4.500000	1.485665
4.501000	1.479545
4.502000	1.552338
4.503000	1.580360
4.504000	1.595177
4.505000	1.659918
4.506000	1.677633
4.507000	1.683431
4.508000	1.673768
4.509000	1.595499
4.510000	1.564578
4.511000	1.568765
4.512000	1.597753
4.513000	1.599686
4.514000	1.570053
4.515000	1.545896
4.516000	1.518196
4.517000	1.484698
4.518000	1.487597
4.519000	1.485020
4.520000	1.435418
4.521000	1.366812
4.522000	1.317209
4.523000	1.272760
4.524000	1.285322
4.525000	1.354894
4.526000	1.547507
4.527000	1.704367
4.528000	1.829662
4.529000	1.826763
4.530000	1.788111
4.531000	1.735932
4.532000	1.665393
4.533000	1.542353
4.534000	1.408040
4.535000	1.324617
4.536000	1.275659
4.537000	1.258588
4.538000	1.377119
4.539000	1.543319
4.540000	1.624809
4.541000	1.533012
4.542000	1.490174
4.543000	1.540421
4.544000	1.618045
4.545000	1.674734
4.546000	1.733355
4.547000	1.758156
4.548000	1.761377
4.549000	1.754291
4.550000	1.732067
4.551000	1.694060
4.552000	1.675700
4.553000	1.645101
4.554000	1.609671
4.555000	1.560713
4.556000	1.487275
4.557000	1.441860
4.558000	1.449590
4.559000	1.538166
4.560000	1.600652
4.561000	1.634794
4.562000	1.602907
4.563000	1.464084
4.564000	1.410294
4.565000	1.396444
4.566000	1.492751
4.567000	1.629319
4.568000	1.721116
4.569000	1.720794
4.570000	1.678599
4.571000	1.654120
4.572000	1.635761
4.573000	1.625131
4.574000	1.638015
4.575000	1.666682
4.576000	1.715962
4.577000	1.745595
4.578000	1.719827
4.579000	1.689550
4.580000	1.709198
4.581000	1.658951
4.582000	1.586158
4.583000	1.515297
4.584000	1.428332
4.585000	1.393223
4.586000	1.347808
4.587000	1.311089
4.588000	1.361014
4.589000	1.466661
4.590000	1.541065
4.591000	1.581649
4.592000	1.580682
4.593000	1.675056
4.594000	1.723692
4.595000	1.690839
4.596000	1.677311
4.597000	1.655730
4.598000	1.652509
4.599000	1.644457
4.600000	1.580360
4.601000	1.533012
4.602000	1.409006
4.603000	1.343621
4.604000	1.341366
4.605000	1.388070
4.606000	1.499515
4.607000	1.570375
4.608000	1.586802
4.609000	1.610959
4.610000	1.628030
4.611000	1.614180
4.612000	1.564256
4.613000	1.607094
4.614000	1.630285
4.615000	1.637371
4.616000	1.589379
4.617000	1.533979
4.618000	1.489852
4.619000	1.430586
4.620000	1.359081
4.621000	1.366812
4.622000	1.393868
4.623000	1.511432
4.624000	1.679243
4.625000	1.826118
4.626000	1.900844
4.627000	1.879908
4.628000	1.817422
4.629000	1.749138
4.630000	1.712097
4.631000	1.660240
4.632000	1.617723
4.633000	1.604517
4.634000	1.594210
4.635000	1.571664
4.636000	1.545896
4.637000	1.504346
4.638000	1.513043
4.639000	1.605162
4.640000	1.684075
4.641000	1.756868
4.642000	1.862515
4.643000	1.908897
4.644000	1.814845
4.645000	1.648644
4.646000	1.479545
4.647000	1.341366
4.648000	1.294663
4.649000	1.293696
4.650000	1.299816
4.651000	1.354572
4.652000	1.349096
4.653000	1.343621
4.654000	1.332670
4.655000	1.312056
4.656000	1.334924
4.657000	1.434774
4.658000	1.568765
4.659000	1.698247
4.660000	1.777482
4.661000	1.798418
4.662000	1.765887
4.663000	1.703723
4.664000	1.626742
4.665000	1.562967
4.666000	1.504346
4.667000	1.459575
4.668000	1.401920
4.669000	1.375830
4.670000	1.417703
4.671000	1.497904
4.672000	1.633506
4.673000	1.698891
4.674000	1.667970
4.675000	1.624809
4.676000	1.608705
4.677000	1.656053
4.678000	1.691161
4.679000	1.684719
4.680000	1.662172
4.681000	1.636727
4.682000	1.636727
4.683000	1.594532
4.684000	1.583581
4.685000	1.587446
4.686000	1.584225
4.687000	1.582937
4.688000	1.591312
4.689000	1.611926
4.690000	1.585836
4.691000	1.557492
4.692000	1.558136
4.693000	1.583581
4.694000	1.616435
4.695000	1.638337
4.696000	1.634150
4.697000	1.615791
4.698000	1.584225
4.699000	1.541387
4.700000	1.489208
4.701000	1.414160
4.702000	1.367134
4.703000	1.325261
4.704000	1.296595
4.705000	1.368422
4.706000	1.492428
4.707000	1.624487
4.708000	1.729168
4.709000	1.755902
4.710000	1.733677
4.711000	1.681176
4.712000	1.639626
4.713000	1.620300
4.714000	1.591956
4.715000	1.578106
4.716000	1.565866
4.717000	1.548151
4.718000	1.545252
4.719000	1.552016
4.720000	1.555559
4.721000	1.565866
4.722000	1.581004
4.723000	1.623199
4.724000	1.673446
4.725000	1.712097
4.726000	1.731101
4.727000	1.736254
4.728000	1.681176
4.729000	1.604839
4.730000	1.545574
4.731000	1.488563
4.732000	1.446691
4.733000	1.432519
4.734000	1.480511
4.735000	1.547507
4.736000	1.590023
4.737000	1.585836
4.738000	1.518196
4.739000	1.458286
4.740000	1.428654
4.741000	1.409650
4.742000	1.448946
4.743000	1.531402
4.744000	1.642202
4.745000	1.727880
4.746000	1.740119
4.747000	1.685363
4.748000	1.586480
4.749000	1.502413
4.750000	1.431553
4.751000	1.414160
4.752000	1.416414
4.753000	1.420924
4.754000	1.404497
4.755000	1.380018
4.756000	1.360692
4.757000	1.394834
4.758000	1.494361
4.759000	1.596465
4.760000	1.685363
4.761000	1.693415
4.762000	1.672479
4.763000	1.655408
4.764000	1.628997
4.765000	1.601941
4.766000	1.578428
4.767000	1.557814
4.768000	1.562967
4.769000	1.559424
4.770000	1.558136
4.771000	1.557814
4.772000	1.561035
4.773000	1.566832
4.774000	1.564256
4.775000	1.569409
4.776000	1.591956
4.777000	1.597753
4.778000	1.605806
4.779000	1.602585
4.780000	1.576817
4.781000	1.562645
4.782000	1.547507
4.783000	1.540421
4.784000	1.544930
4.785000	1.541387
4.786000	1.521417
4.787000	1.497904
4.788000	1.484698
4.789000	1.487275
4.790000	1.497260
4.791000	1.542997
4.792000	1.611926
4.793000	1.660884
4.794000	1.663139
4.795000	1.641558
4.796000	1.655408
4.797000	1.707266
4.798000	1.725947
4.799000	1.722726
4.800000	1.710809
4.801000	1.690517
4.802000	1.656697
4.803000	1.590667
4.804000	1.534623
4.805000	1.545896
4.806000	1.576817
4.807000	1.575851
4.808000	1.566832
4.809000	1.563611
4.810000	1.547829
4.811000	1.455066
4.812000	1.403853
4.813000	1.438639
4.814000	1.468271
4.815000	1.487275
4.816000	1.483410
4.817000	1.466983
4.818000	1.483088
4.819000	1.481477
4.820000	1.480511
4.821000	1.485665
4.822000	1.489530
4.823000	1.507245
4.824000	1.523350
4.825000	1.538488
4.826000	1.544286
4.827000	1.555237
4.828000	1.575851
4.829000	1.614502
4.830000	1.601619
4.831000	1.597431
4.832000	1.618690
4.833000	1.619334
4.834000	1.608705
4.835000	1.583259
4.836000	1.536233
4.837000	1.496294
4.838000	1.490818
4.839000	1.494361
4.840000	1.483410
4.841000	1.478901
4.842000	1.476324
4.843000	1.485020
4.844000	1.527859
4.845000	1.576817
4.846000	1.638015
4.847000	1.662494
4.848000	1.658307
4.849000	1.627708
4.850000	1.592922
4.851000	1.576817
4.852000	1.583581
4.853000	1.589701
4.854000	1.591956
4.855000	1.581971
4.856000	1.583581
4.857000	1.583903
4.858000	1.584225
4.859000	1.611281
4.860000	1.653798
4.861000	1.671513
4.862000	1.669258
4.863000	1.648966
4.864000	1.619978
4.865000	1.582615
4.866000	1.550406
4.867000	1.504346
4.868000	1.468593
4.869000	1.462474
4.870000	1.478578
4.871000	1.502736
4.872000	1.552660
4.873000	1.580360
4.874000	1.598720
4.875000	1.610315
4.876000	1.619334
4.877000	1.614180
4.878000	1.599364
4.879000	1.575207
4.880000	1.566188
4.881000	1.563289
4.882000	1.544286
4.883000	1.521739
4.884000	1.514653
4.885000	1.566510
4.886000	1.626742
4.887000	1.665715
4.888000	1.655408
4.889000	1.629319
4.890000	1.587446
4.891000	1.566188
4.892000	1.566188
4.893000	1.560390
4.894000	1.560068
4.895000	1.555559
4.896000	1.556525
4.897000	1.542675
4.898000	1.530114
4.899000	1.553304
4.900000	1.554915
4.901000	1.545574
4.902000	1.542675
4.903000	1.529147
4.904000	1.516263
4.905000	1.544286
4.906000	1.558136
4.907000	1.574885
4.908000	1.585192
4.909000	1.619334
4.910000	1.623521
4.911000	1.630607
4.912000	1.607416
4.913000	1.578428
4.914000	1.546540
4.915000	1.531080
4.916000	1.545252
4.917000	1.532046
4.918000	1.522061
4.919000	1.536555
4.920000	1.580038
4.921000	1.616757
4.922000	1.625131
4.923000	1.618690
4.924000	1.600008
4.925000	1.582937
4.926000	1.555237
4.927000	1.531080
4.928000	1.525282
4.929000	1.474069
4.930000	1.440249
4.931000	1.408362
4.932000	1.454099
4.933000	1.528825
4.934000	1.570375
4.935000	1.642202
4.936000	1.630285
4.937000	1.583581
4.938000	1.567154
4.939000	1.564578
4.940000	1.575207
4.941000	1.589057
4.942000	1.611603
4.943000	1.627708
4.944000	1.638337
4.945000	1.646712
4.946000	1.643813
4.947000	1.638337
4.948000	1.634472
4.949000	1.614824
4.950000	1.591634
4.951000	1.580360
4.952000	1.546218
4.953000	1.513043
4.954000	1.494039
4.955000	1.498226
4.956000	1.512398
4.957000	1.519807
4.958000	1.543642
4.959000	1.559424
4.960000	1.569409
4.961000	1.575851
4.962000	1.574240
4.963000	1.568443
4.964000	1.549117
4.965000	1.540743
4.966000	1.537200
4.967000	1.537844
4.968000	1.539132
4.969000	1.539454
4.970000	1.539454
4.971000	1.541065
4.972000	1.554593
4.973000	1.561357
4.974000	1.576173
4.975000	1.623843
4.976000	1.687940
4.977000	1.706299
4.978000	1.688262
4.979000	1.659273
4.980000	1.598075
4.981000	1.541709
4.982000	1.519162
4.983000	1.509499
4.984000	1.504990
4.985000	1.562645
4.986000	1.609993
4.987000	1.643813
4.988000	1.656053
4.989000	1.660562
4.990000	1.638015
4.991000	1.609993
4.992000	1.555237
4.993000	1.508533
4.994000	1.486953
4.995000	1.472459
4.996000	1.514009
4.997000	1.593888
4.998000	1.637693
4.999000	1.644779
5.000000	1.628030
5.001000	1.569409
5.002000	1.519807
5.003000	1.474069
5.004000	1.447335
5.005000	1.460219
5.006000	1.466983
5.007000	1.479223
5.008000	1.488563
5.009000	1.510466
5.010000	1.529469
5.011000	1.548473
5.012000	1.550083
5.013000	1.528181
5.014000	1.508533
5.015000	1.504668
5.016000	1.510788
5.017000	1.501125
5.018000	1.490496
5.019000	1.483410
5.020000	1.532046
5.021000	1.550728
5.022000	1.563289
5.023000	1.565544
5.024000	1.570697
5.025000	1.583581
5.026000	1.599364
5.027000	1.618690
5.028000	1.614502
5.029000	1.613536
5.030000	1.599686
5.031000	1.583903
5.032000	1.575529
5.033000	1.573274
5.034000	1.579072
5.035000	1.582937
5.036000	1.577461
5.037000	1.571342
5.038000	1.556847
5.039000	1.566188
5.040000	1.556847
5.041000	1.533012
5.042000	1.552660
5.043000	1.579072
5.044000	1.585192
5.045000	1.592922
5.046000	1.588735
5.047000	1.572630
5.048000	1.547507
5.049000	1.519484
5.050000	1.507567
5.051000	1.526248
5.052000	1.527537
5.053000	1.528503
5.054000	1.526893
5.055000	1.534945
5.056000	1.558780
5.057000	1.617079
5.058000	1.707266
5.059000	1.761055
5.060000	1.790688
5.061000	1.812590
5.062000	1.795842
5.063000	1.740763
5.064000	1.657663
5.065000	1.570053
5.066000	1.490174
5.067000	1.429298
5.068000	1.393223
5.069000	1.408362
5.070000	1.445725
5.071000	1.473425
5.072000	1.454099
5.073000	1.451845
5.074000	1.498226
5.075000	1.498870
5.076000	1.470204
5.077000	1.482121
5.078000	1.512398
5.079000	1.527859
5.080000	1.525926
5.081000	1.518840
5.082000	1.512076
5.083000	1.505634
5.084000	1.506279
5.085000	1.514653
5.086000	1.524638
5.087000	1.538166
5.088000	1.582293
5.089000	1.622877
5.090000	1.633506
5.091000	1.634150
5.092000	1.625776
5.093000	1.618045
5.094000	1.585836
5.095000	1.528181
5.096000	1.475357
5.097000	1.422856
5.098000	1.418025
5.099000	1.434774
5.100000	1.478578
5.101000	1.538810
5.102000	1.589379
5.103000	1.597753
5.104000	1.598075
5.105000	1.585192
5.106000	1.575851
5.107000	1.578428
5.108000	1.585514
5.109000	1.591956
5.110000	1.591634
5.111000	1.590023
5.112000	1.593244
5.113000	1.589057
5.114000	1.612570
5.115000	1.664749
5.116000	1.701790
5.117000	1.691483
5.118000	1.674090
5.119000	1.661206
5.120000	1.639304
5.121000	1.611281
5.122000	1.594532
5.123000	1.582615
5.124000	1.580682
5.125000	1.588735
5.126000	1.590023
5.127000	1.589379
5.128000	1.589379
5.129000	1.581971
5.130000	1.562323
5.131000	1.512076
5.132000	1.464728
5.133000	1.449912
5.134000	1.451522
5.135000	1.456998
5.136000	1.468271
5.137000	1.485020
5.138000	1.500481
5.139000	1.515297
5.140000	1.525926
5.141000	1.535911
5.142000	1.552016
5.143000	1.561035
5.144000	1.567154
5.145000	1.592600
5.146000	1.621266
5.147000	1.619978
5.148000	1.596143
5.149000	1.575851
5.150000	1.569087
5.151000	1.571342
5.152000	1.597753
5.153000	1.640914
5.154000	1.663783
5.155000	1.680210
5.156000	1.669903
5.157000	1.626742
5.158000	1.578750
5.159000	1.508533
5.160000	1.451845
5.161000	1.443470
5.162000	1.451200
5.163000	1.461830
5.164000	1.483732
5.165000	1.501769
5.166000	1.493717
5.167000	1.494039
5.168000	1.495005
5.169000	1.496616
5.170000	1.506923
5.171000	1.504024
5.172000	1.512398
5.173000	1.521739
5.174000	1.535267
5.175000	1.565866
5.176000	1.616113
5.177000	1.676022
5.178000	1.700502
5.179000	1.698569
5.180000	1.680210
5.181000	1.633506
5.182000	1.577784
5.183000	1.513687
5.184000	1.458286
5.185000	1.431875
5.186000	1.440249
5.187000	1.463440
5.188000	1.482444
5.189000	1.509177
5.190000	1.545252
5.191000	1.544608
5.192000	1.560390
5.193000	1.594532
5.194000	1.641236
5.195000	1.691483
5.196000	1.702434
5.197000	1.671513
5.198000	1.627708
5.199000	1.569409
5.200000	1.514975
5.201000	1.474391
5.202000	1.468593
5.203000	1.480189
5.204000	1.490496
5.205000	1.494683
5.206000	1.507245
5.207000	1.515619
5.208000	1.535589
5.209000	1.543642
5.210000	1.558780
5.211000	1.564900
5.212000	1.571986
5.213000	1.569409
5.214000	1.560713
5.215000	1.554271
5.216000	1.598398
5.217000	1.665393
5.218000	1.758156
5.219000	1.822898
5.220000	1.800995
5.221000	1.728202
5.222000	1.653476
5.223000	1.598075
5.224000	1.551694
5.225000	1.488563
5.226000	1.422212
5.227000	1.400632
5.228000	1.417380
5.229000	1.447657
5.230000	1.469238
5.231000	1.482121
5.232000	1.494361
5.233000	1.498548
5.234000	1.499837
5.235000	1.500803
5.236000	1.511110
5.237000	1.523027
5.238000	1.529791
5.239000	1.562323
5.240000	1.606450
5.241000	1.638981
5.242000	1.672479
5.243000	1.689550
5.244000	1.681498
5.245000	1.648000
5.246000	1.608060
5.247000	1.573596
5.248000	1.531724
5.249000	1.507567
5.250000	1.498226
5.251000	1.504024
5.252000	1.506279
5.253000	1.508533
5.254000	1.510788
5.255000	1.513687
5.256000	1.514009
5.257000	1.502091
5.258000	1.489530
5.259000	1.510466
5.260000	1.536878
5.261000	1.553304
5.262000	1.565222
5.263000	1.591634
5.264000	1.614824
5.265000	1.624809
5.266000	1.608383
5.267000	1.572630
5.268000	1.534301
5.269000	1.519807
5.270000	1.518840
5.271000	1.513687
5.272000	1.520773
5.273000	1.513365
5.274000	1.533657
5.275000	1.551694
5.276000	1.565544
5.277000	1.575207
5.278000	1.578106
5.279000	1.578106
5.280000	1.570697
5.281000	1.555237
5.282000	1.542675
5.283000	1.533334
5.284000	1.560713
5.285000	1.589701
5.286000	1.619334
5.287000	1.659596
5.288000	1.681498
5.289000	1.676344
5.290000	1.663783
5.291000	1.609349
5.292000	1.576495
5.293000	1.566510
5.294000	1.538488
5.295000	1.520773
5.296000	1.526893
5.297000	1.522061
5.298000	1.524316
5.299000	1.540743
5.300000	1.544286
5.301000	1.544608
5.302000	1.546218
5.303000	1.530436
5.304000	1.509177
5.305000	1.512720
5.306000	1.526248
5.307000	1.539776
5.308000	1.554271
5.309000	1.588735
5.310000	1.634150
5.311000	1.674090
5.312000	1.695348
5.313000	1.656053
5.314000	1.638015
5.315000	1.614502
5.316000	1.620622
5.317000	1.642847
5.318000	1.620300
5.319000	1.563611
5.320000	1.511432
5.321000	1.473425
5.322000	1.450556
5.323000	1.442826
5.324000	1.458286
5.325000	1.484054
5.326000	1.516908
5.327000	1.535589
5.328000	1.537200
5.329000	1.542997
5.330000	1.532368
5.331000	1.520773
5.332000	1.509822
5.333000	1.496938
5.334000	1.509822
5.335000	1.523350
5.336000	1.524638
5.337000	1.512076
5.338000	1.504346
5.339000	1.516908
5.340000	1.523672
5.341000	1.526248
5.342000	1.540421
5.343000	1.557814
5.344000	1.599042
5.345000	1.645745
5.346000	1.688584
5.347000	1.706299
5.348000	1.689550
5.349000	1.671513
5.350000	1.626098
5.351000	1.576173
5.352000	1.546218
5.353000	1.511110
5.354000	1.492106
5.355000	1.490818
5.356000	1.506279
5.357000	1.532046
5.358000	1.541065
5.359000	1.546862
5.360000	1.538810
5.361000	1.530758
5.362000	1.512398
5.363000	1.491784
5.364000	1.482121
5.365000	1.499192
5.366000	1.515619
5.367000	1.541709
5.368000	1.554915
5.369000	1.559424
5.370000	1.562967
5.371000	1.575529
5.372000	1.573596
5.373000	1.576817
5.374000	1.573596
5.375000	1.594855
5.376000	1.608060
5.377000	1.602263
5.378000	1.602585
5.379000	1.607738
5.380000	1.605806
5.381000	1.617079
5.382000	1.635438
5.383000	1.643813
5.384000	1.637371
5.385000	1.615147
5.386000	1.584870
5.387000	1.557169
5.388000	1.547507
5.389000	1.549761
5.390000	1.555881
5.391000	1.559746
5.392000	1.566510
5.393000	1.586802
5.394000	1.620944
5.395000	1.712419
5.396000	1.775550
5.397000	1.754291
5.398000	1.770074
5.399000	1.786501
5.400000	1.736898
5.401000	1.631895
5.402000	1.539776
5.403000	1.476646
5.404000	1.458609
5.405000	1.426721
5.406000	1.401276
5.407000	1.401276
5.408000	1.421246
5.409000	1.440249
5.410000	1.459253
5.411000	1.453133
5.412000	1.468271
5.413000	1.484698
5.414000	1.483410
5.415000	1.485342
5.416000	1.487275
5.417000	1.505312
5.418000	1.529469
5.419000	1.531402
5.420000	1.528825
5.421000	1.536555
5.422000	1.556203
5.423000	1.571342
5.424000	1.575207
5.425000	1.578106
5.426000	1.584870
5.427000	1.581327
5.428000	1.588735
5.429000	1.606128
5.430000	1.604839
5.431000	1.615791
5.432000	1.623199
5.433000	1.617723
5.434000	1.597753
5.435000	1.567154
5.436000	1.547185
5.437000	1.526571
5.438000	1.505956
5.439000	1.503380
5.440000	1.523350
5.441000	1.530758
5.442000	1.540098
5.443000	1.557814
5.444000	1.563933
5.445000	1.557814
5.446000	1.555237
5.447000	1.539776
5.448000	1.531402
5.449000	1.532046
5.450000	1.530758
5.451000	1.546540
5.452000	1.603873
5.453000	1.663139
5.454000	1.729168
5.455000	1.778771
5.456000	1.786501
5.457000	1.754291
5.458000	1.705977
5.459000	1.630285
5.460000	1.562001
5.461000	1.491462
5.462000	1.454743
5.463000	1.427688
5.464000	1.409328
5.465000	1.421568
5.466000	1.466983
5.467000	1.497260
5.468000	1.518840
5.469000	1.518840
5.470000	1.519807
5.471000	1.527859
5.472000	1.524638
5.473000	1.514009
5.474000	1.557492
5.475000	1.646390
5.476000	1.728524
5.477000	1.750748
5.478000	1.730778
5.479000	1.687940
5.480000	1.628997
5.481000	1.545252
5.482000	1.478578
5.483000	1.424144
5.484000	1.394834
5.485000	1.395156
5.486000	1.424467
5.487000	1.457964
5.488000	1.480189
5.489000	1.498870
5.490000	1.517230
5.491000	1.549117
5.492000	1.581971
5.493000	1.612892
5.494000	1.657019
5.495000	1.702112
5.496000	1.719505
5.497000	1.686329
5.498000	1.626098
5.499000	1.560390
5.500000	1.501447
5.501000	1.448946
5.502000	1.418991
5.503000	1.426721
5.504000	1.460541
5.505000	1.499515
5.506000	1.533012
5.507000	1.592922
5.508000	1.646390
5.509000	1.684719
5.510000	1.692127
5.511000	1.675378
5.512000	1.655730
5.513000	1.619978
5.514000	1.572630
5.515000	1.515297
5.516000	1.476646
5.517000	1.472781
5.518000	1.476002
5.519000	1.483732
5.520000	1.506601
5.521000	1.520451
5.522000	1.526571
5.523000	1.561357
5.524000	1.602263
5.525000	1.654764
5.526000	1.692127
5.527000	1.710164
5.528000	1.713385
5.529000	1.699213
5.530000	1.661850
5.531000	1.622877
5.532000	1.567154
5.533000	1.500481
5.534000	1.457320
5.535000	1.438639
5.536000	1.432841
5.537000	1.461185
5.538000	1.486631
5.539000	1.519807
5.540000	1.544608
5.541000	1.565544
5.542000	1.583903
5.543000	1.587446
5.544000	1.561035
5.545000	1.556203
5.546000	1.552660
5.547000	1.562645
5.548000	1.601296
5.549000	1.649933
5.550000	1.666037
5.551000	1.686974
5.552000	1.702756
5.553000	1.692127
5.554000	1.666037
5.555000	1.618367
5.556000	1.566510
5.557000	1.506923
5.558000	1.468593
5.559000	1.443792
5.560000	1.430586
5.561000	1.453777
5.562000	1.471492
5.563000	1.473103
5.564000	1.481799
5.565000	1.490818
5.566000	1.497904
5.567000	1.493395
5.568000	1.500803
5.569000	1.494683
5.570000	1.473103
5.571000	1.476324
5.572000	1.488563
5.573000	1.506923
5.574000	1.526248
5.575000	1.548473
5.576000	1.569087
5.577000	1.593566
5.578000	1.648644
5.579000	1.705977
5.580000	1.723370
5.581000	1.714996
5.582000	1.686007
5.583000	1.622555
5.584000	1.573596
5.585000	1.529469
5.586000	1.480511
5.587000	1.467627
5.588000	1.497582
5.589000	1.523672
5.590000	1.537522
5.591000	1.537844
5.592000	1.542031
5.593000	1.538166
5.594000	1.526248
5.595000	1.514009
5.596000	1.517230
5.597000	1.526248
5.598000	1.520451
5.599000	1.516263
5.600000	1.513365
5.601000	1.514653
5.602000	1.522705
5.603000	1.579072
5.604000	1.630285
5.605000	1.665393
5.606000	1.667326
5.607000	1.633184
5.608000	1.610315
5.609000	1.609993
5.610000	1.623843
5.611000	1.618690
5.612000	1.605162
5.613000	1.624487
5.614000	1.634794
5.615000	1.623843
5.616000	1.589057
5.617000	1.559424
5.618000	1.496616
5.619000	1.457642
5.620000	1.451522
5.621000	1.440571
5.622000	1.450878
5.623000	1.473103
5.624000	1.508855
5.625000	1.562323
5.626000	1.636083
5.627000	1.687296
5.628000	1.703078
5.629000	1.693738
5.630000	1.672157
5.631000	1.643169
5.632000	1.624809
5.633000	1.592278
5.634000	1.569731
5.635000	1.551050
5.636000	1.541709
5.637000	1.525926
5.638000	1.514331
5.639000	1.507245
5.640000	1.477934
5.641000	1.432841
5.642000	1.424789
5.643000	1.461507
5.644000	1.490174
5.645000	1.500159
5.646000	1.512398
5.647000	1.511110
5.648000	1.512076
5.649000	1.514975
5.650000	1.516908
5.651000	1.528181
5.652000	1.581971
5.653000	1.644457
5.654000	1.690195
5.655000	1.712741
5.656000	1.711131
5.657000	1.690839
5.658000	1.667648
5.659000	1.632862
5.660000	1.591634
5.661000	1.539454
5.662000	1.515619
5.663000	1.494039
5.664000	1.467627
5.665000	1.461507
5.666000	1.477290
5.667000	1.495649
5.668000	1.509499
5.669000	1.524960
5.670000	1.554593
5.671000	1.592600
5.672000	1.629319
5.673000	1.705655
5.674000	1.762988
5.675000	1.765887
5.676000	1.732711
5.677000	1.667326
5.678000	1.587124
5.679000	1.520773
5.680000	1.469560
5.681000	1.430586
5.682000	1.413193
5.683000	1.398699
5.684000	1.393223
5.685000	1.428332
5.686000	1.465373
5.687000	1.479545
5.688000	1.510788
5.689000	1.528825
5.690000	1.564578
5.691000	1.594532
5.692000	1.623199
5.693000	1.638659
5.694000	1.635116
5.695000	1.625776
5.696000	1.613536
5.697000	1.581004
5.698000	1.549117
5.699000	1.527859
5.700000	1.553949
5.701000	1.625776
5.702000	1.694060
5.703000	1.722082
5.704000	1.703723
5.705000	1.649289
5.706000	1.598720
5.707000	1.550083
5.708000	1.545252
5.709000	1.552982
5.710000	1.564256
5.711000	1.591634
5.712000	1.621266
5.713000	1.629963
5.714000	1.620944
5.715000	1.585192
5.716000	1.519162
5.717000	1.472781
5.718000	1.437028
5.719000	1.423822
5.720000	1.434451
5.721000	1.464406
5.722000	1.480511
5.723000	1.505956
5.724000	1.553304
5.725000	1.589701
5.726000	1.606772
5.727000	1.609993
5.728000	1.569409
5.729000	1.550728
5.730000	1.536555
5.731000	1.501769
5.732000	1.485987
5.733000	1.493717
5.734000	1.500159
5.735000	1.528181
5.736000	1.592278
5.737000	1.661206
5.738000	1.704045
5.739000	1.712419
5.740000	1.702756
5.741000	1.652832
5.742000	1.611603
5.743000	1.581327
5.744000	1.562001
5.745000	1.538810
5.746000	1.524960
5.747000	1.512720
5.748000	1.515297
5.749000	1.513365
5.750000	1.512076
5.751000	1.524960
5.752000	1.540421
5.753000	1.584225
5.754000	1.610637
5.755000	1.598075
5.756000	1.602263
5.757000	1.590667
5.758000	1.578106
5.759000	1.570375
5.760000	1.562967
5.761000	1.555237
5.762000	1.551372
5.763000	1.545896
5.764000	1.533334
5.765000	1.574563
5.766000	1.598075
5.767000	1.587768
5.768000	1.547829
5.769000	1.538810
5.770000	1.567477
5.771000	1.591956
5.772000	1.600330
5.773000	1.606450
5.774000	1.591956
5.775000	1.573274
5.776000	1.565866
5.777000	1.535911
5.778000	1.527215
5.779000	1.536233
5.780000	1.529791
5.781000	1.513687
5.782000	1.502091
5.783000	1.513365
5.784000	1.531402
5.785000	1.540098
5.786000	1.552982
5.787000	1.559746
5.788000	1.593888
5.789000	1.645745
5.790000	1.705655
5.791000	1.762022
5.792000	1.824186
5.793000	1.867991
5.794000	1.864126
5.795000	1.824830
5.796000	1.739797
5.797000	1.623199
5.798000	1.525282
5.799000	1.447335
5.800000	1.402564
5.801000	1.361336
5.802000	1.367456
5.803000	1.404497
5.804000	1.436384
5.805000	1.445725
5.806000	1.468916
5.807000	1.483732
5.808000	1.471814
5.809000	1.483088
5.810000	1.504990
5.811000	1.533012
5.812000	1.550728
5.813000	1.550728
5.814000	1.543319
5.815000	1.537522
5.816000	1.538810
5.817000	1.542997
5.818000	1.561357
5.819000	1.589057
5.820000	1.609349
5.821000	1.623843
5.822000	1.619334
5.823000	1.609993
5.824000	1.611281
5.825000	1.613536
5.826000	1.609671
5.827000	1.598398
5.828000	1.581971
5.829000	1.566832
5.830000	1.549117
5.831000	1.534623
5.832000	1.542031
5.833000	1.558458
5.834000	1.569409
5.835000	1.583259
5.836000	1.600330
5.837000	1.617401
5.838000	1.635761
5.839000	1.644779
5.840000	1.649611
5.841000	1.652187
5.842000	1.648644
5.843000	1.608383
5.844000	1.586480
5.845000	1.584548
5.846000	1.553304
5.847000	1.495327
5.848000	1.485020
5.849000	1.518518
5.850000	1.575529
5.851000	1.612570
5.852000	1.613536
5.853000	1.609027
5.854000	1.605806
5.855000	1.606450
5.856000	1.600652
5.857000	1.587768
5.858000	1.595177
5.859000	1.598398
5.860000	1.586802
5.861000	1.537200
5.862000	1.498870
5.863000	1.472781
5.864000	1.475680
5.865000	1.468271
5.866000	1.477290
5.867000	1.506279
5.868000	1.516586
5.869000	1.531402
5.870000	1.587124
5.871000	1.624487
5.872000	1.646712
5.873000	1.647356
5.874000	1.630607
5.875000	1.610315
5.876000	1.594855
5.877000	1.589379
5.878000	1.562001
5.879000	1.534301
5.880000	1.489852
5.881000	1.479867
5.882000	1.486631
5.883000	1.526248
5.884000	1.564256
5.885000	1.591634
5.886000	1.599042
5.887000	1.599364
5.888000	1.605162
5.889000	1.632862
5.890000	1.657341
5.891000	1.669903
5.892000	1.642847
5.893000	1.597753
5.894000	1.570053
5.895000	1.537844
5.896000	1.524316
5.897000	1.487597
5.898000	1.471492
5.899000	1.483732
5.900000	1.498226
5.901000	1.513043
5.902000	1.528181
5.903000	1.541065
5.904000	1.541709
5.905000	1.538166
5.906000	1.531080
5.907000	1.554593
5.908000	1.554271
5.909000	1.550406
5.910000	1.553626
5.911000	1.557814
5.912000	1.558458
5.913000	1.552016
5.914000	1.543319
5.915000	1.533979
5.916000	1.514653
5.917000	1.479223
5.918000	1.468916
5.919000	1.487275
5.920000	1.504024
5.921000	1.522705
5.922000	1.540098
5.923000	1.562967
5.924000	1.581327
5.925000	1.613536
5.926000	1.641558
5.927000	1.670869
5.928000	1.693738
5.929000	1.702756
5.930000	1.671191
5.931000	1.633828
5.932000	1.635116
5.933000	1.683753
5.934000	1.677955
5.935000	1.643813
5.936000	1.597753
5.937000	1.529791
5.938000	1.462796
5.939000	1.428332
5.940000	1.402564
5.941000	1.388392
5.942000	1.407073
5.943000	1.435418
5.944000	1.464728
5.945000	1.487919
5.946000	1.504024
5.947000	1.517230
5.948000	1.528181
5.949000	1.524638
5.950000	1.529469
5.951000	1.578428
5.952000	1.645745
5.953000	1.680210
5.954000	1.683431
5.955000	1.686329
5.956000	1.685363
5.957000	1.651865
5.958000	1.638015
5.959000	1.596465
5.960000	1.528825
5.961000	1.472781
5.962000	1.437672
5.963000	1.400632
5.964000	1.375508
5.965000	1.366812
5.966000	1.385815
5.967000	1.422212
5.968000	1.448624
5.969000	1.470526
5.970000	1.479867
5.971000	1.496616
5.972000	1.510144
5.973000	1.530436
5.974000	1.544608
5.975000	1.592922
5.976000	1.657663
5.977000	1.710164
5.978000	1.735932
5.979000	1.742374
5.980000	1.705977
5.981000	1.657019
5.982000	1.610637
5.983000	1.558780
5.984000	1.508533
5.985000	1.448302
5.986000	1.426399
5.987000	1.428010
5.988000	1.435740
5.989000	1.461507
5.990000	1.498548
5.991000	1.516263
5.992000	1.538166
5.993000	1.551372
5.994000	1.559424
5.995000	1.563289
5.996000	1.553304
5.997000	1.541709
5.998000	1.531724
5.999000	1.530758
6.000000	1.545574
6.001000	1.597431
6.002000	1.686329
6.003000	1.777482
6.004000	1.818710
6.005000	1.815489
6.006000	1.777804
6.007000	1.698569
6.008000	1.629641
6.009000	1.565866
6.010000	1.494039
6.011000	1.428010
6.012000	1.403208
6.013000	1.394834
6.014000	1.380984
6.015000	1.393868
6.016000	1.410294
6.017000	1.428010
6.018000	1.438317
6.019000	1.455710
6.020000	1.466339
6.021000	1.481155
6.022000	1.493717
6.023000	1.504990
6.024000	1.526893
6.025000	1.547507
6.026000	1.583259
6.027000	1.635438
6.028000	1.679565
6.029000	1.709198
6.030000	1.712741
6.031000	1.695348
6.032000	1.656697
6.033000	1.607738
6.034000	1.556847
6.035000	1.512398
6.036000	1.491784
6.037000	1.503380
6.038000	1.505312
6.039000	1.499515
6.040000	1.507245
6.041000	1.497904
6.042000	1.524960
6.043000	1.567154
6.044000	1.610315
6.045000	1.619656
6.046000	1.605162
6.047000	1.583903
6.048000	1.577139
6.049000	1.558136
6.050000	1.545252
6.051000	1.532690
6.052000	1.522383
6.053000	1.508533
6.054000	1.491140
6.055000	1.486309
6.056000	1.493073
6.057000	1.515297
6.058000	1.530758
6.059000	1.542031
6.060000	1.557169
6.061000	1.577461
6.062000	1.588735
6.063000	1.587768
6.064000	1.586480
6.065000	1.585514
6.066000	1.563611
6.067000	1.532690
6.068000	1.521739
6.069000	1.508211
6.070000	1.502091
6.071000	1.506601
6.072000	1.523994
6.073000	1.532690
6.074000	1.536555
6.075000	1.536878
6.076000	1.571664
6.077000	1.647356
6.078000	1.757512
6.079000	1.840935
6.080000	1.869923
6.081000	1.865092
6.082000	1.819032
6.083000	1.739475
6.084000	1.643491
6.085000	1.541709
6.086000	1.446369
6.087000	1.394834
6.088000	1.369388
6.089000	1.362302
6.090000	1.389358
6.091000	1.435096
6.092000	1.468593
6.093000	1.497260
6.094000	1.514009
6.095000	1.519484
6.096000	1.528825
6.097000	1.524638
6.098000	1.524316
6.099000	1.519807
6.100000	1.517874
6.101000	1.518196
6.102000	1.528181
6.103000	1.529469
6.104000	1.538166
6.105000	1.550728
6.106000	1.562967
6.107000	1.572952
6.108000	1.590023
6.109000	1.603229
6.110000	1.609349
6.111000	1.614502
6.112000	1.609349
6.113000	1.597431
6.114000	1.581004
6.115000	1.565866
6.116000	1.560068
6.117000	1.567154
6.118000	1.591312
6.119000	1.631573
6.120000	1.695026
6.121000	1.746239
6.122000	1.773939
6.123000	1.800029
6.124000	1.788755
6.125000	1.751715
6.126000	1.690195
6.127000	1.624487
6.128000	1.567799
6.129000	1.530114
6.130000	1.481155
6.131000	1.436384
6.132000	1.421246
6.133000	1.427688
6.134000	1.442826
6.135000	1.466017
6.136000	1.503058
6.137000	1.543642
6.138000	1.577784
6.139000	1.617723
6.140000	1.655408
6.141000	1.666360
6.142000	1.691805
6.143000	1.722082
6.144000	1.705977
6.145000	1.711453
6.146000	1.694704
6.147000	1.636727
6.148000	1.569087
6.149000	1.523350
6.150000	1.454099
6.151000	1.405141
6.152000	1.388392
6.153000	1.395800
6.154000	1.407718
6.155000	1.428976
6.156000	1.458931
6.157000	1.489208
6.158000	1.522383
6.159000	1.548151
6.160000	1.564900
6.161000	1.574885
6.162000	1.581327
6.163000	1.585836
6.164000	1.571986
6.165000	1.568121
6.166000	1.574885
6.167000	1.616113
6.168000	1.674412
6.169000	1.760411
6.170000	1.811946
6.171000	1.834171
6.172000	1.817744
6.173000	1.767819
6.174000	1.705655
6.175000	1.638337
6.176000	1.552338
6.177000	1.485987
6.178000	1.441538
6.179000	1.413515
6.180000	1.392579
6.181000	1.399665
6.182000	1.415770
6.183000	1.435096
6.184000	1.457320
6.185000	1.475035
6.186000	1.496294
6.187000	1.520129
6.188000	1.554271
6.189000	1.582937
6.190000	1.609993
6.191000	1.628997
6.192000	1.639948
6.193000	1.638659
6.194000	1.628997
6.195000	1.614824
6.196000	1.598398
6.197000	1.573918
6.198000	1.550728
6.199000	1.533012
6.200000	1.526248
6.201000	1.523994
6.202000	1.542031
6.203000	1.555881
6.204000	1.578750
6.205000	1.625776
6.206000	1.659918
6.207000	1.682786
6.208000	1.698569
6.209000	1.703078
6.210000	1.677955
6.211000	1.643813
6.212000	1.605806
6.213000	1.569087
6.214000	1.528825
6.215000	1.517230
6.216000	1.518196
6.217000	1.514009
6.218000	1.523672
6.219000	1.555559
6.220000	1.566832
6.221000	1.575207
6.222000	1.583259
6.223000	1.567799
6.224000	1.553304
6.225000	1.571986
6.226000	1.596787
6.227000	1.608060
6.228000	1.600652
6.229000	1.570053
6.230000	1.520451
6.231000	1.503702
6.232000	1.512076
6.233000	1.510788
6.234000	1.508211
6.235000	1.495972
6.236000	1.495327
6.237000	1.490818
6.238000	1.490818
6.239000	1.504346
6.240000	1.518518
6.241000	1.519484
6.242000	1.527859
6.243000	1.542675
6.244000	1.564578
6.245000	1.589057
6.246000	1.584870
6.247000	1.578106
6.248000	1.571664
6.249000	1.562645
6.250000	1.565866
6.251000	1.583259
6.252000	1.591312
6.253000	1.574563
6.254000	1.573918
6.255000	1.568765
6.256000	1.575207
6.257000	1.602263
6.258000	1.618367
6.259000	1.629963
6.260000	1.650255
6.261000	1.649611
6.262000	1.624165
6.263000	1.579072
6.264000	1.531724
6.265000	1.503380
6.266000	1.503702
6.267000	1.541387
6.268000	1.599042
6.269000	1.637049
6.270000	1.661528
6.271000	1.677633
6.272000	1.677633
6.273000	1.653476
6.274000	1.631895
6.275000	1.600008
6.276000	1.571020
6.277000	1.542353
6.278000	1.514975
6.279000	1.502413
6.280000	1.496616
6.281000	1.489852
6.282000	1.475035
6.283000	1.465373
6.284000	1.458286
6.285000	1.451845
6.286000	1.431875
6.287000	1.421246
6.288000	1.422534
6.289000	1.443148
