LabVIEW Measurement	
Writer_Version	2
Reader_Version	2
Separator	Tab
Decimal_Separator	.
Multi_Headings	Yes
X_Columns	One
Time_Pref	Relative
Operator	bjl40
Description	Time Domain Data
Date	1903/12/31
Time	19:00:00
***End_of_Header***	
	
Channels	1	
Samples	15000	
Date	1903/12/31	
Time	19:00:00	
X_Dimension	Time	
X0	0.0000000000000000E+0	
Delta_X	0.001000	
***End_of_Header***		
X_Value	Untitled	Comment
0.000000	1.564578	Tare Values:0.000000, 0.000000, 0.000000, 0.000000\0D\0A
0.001000	1.579716
0.002000	1.589379
0.003000	1.590345
0.004000	1.586802
0.005000	1.581327
0.006000	1.562323
0.007000	1.551050
0.008000	1.541065
0.009000	1.535911
0.010000	1.526893
0.011000	1.528503
0.012000	1.530114
0.013000	1.534623
0.014000	1.545896
0.015000	1.549439
0.016000	1.561679
0.017000	1.568443
0.018000	1.580682
0.019000	1.591634
0.020000	1.587124
0.021000	1.584225
0.022000	1.579072
0.023000	1.559424
0.024000	1.545574
0.025000	1.538810
0.026000	1.536555
0.027000	1.524638
0.028000	1.529147
0.029000	1.533657
0.030000	1.537522
0.031000	1.543964
0.032000	1.553304
0.033000	1.562967
0.034000	1.577139
0.035000	1.583903
0.036000	1.590667
0.037000	1.582293
0.038000	1.583903
0.039000	1.567477
0.040000	1.553949
0.041000	1.541065
0.042000	1.537522
0.043000	1.529791
0.044000	1.530114
0.045000	1.528503
0.046000	1.532368
0.047000	1.539132
0.048000	1.544608
0.049000	1.552016
0.050000	1.565544
0.051000	1.577784
0.052000	1.585514
0.053000	1.589379
0.054000	1.580360
0.055000	1.575207
0.056000	1.564900
0.057000	1.548795
0.058000	1.537522
0.059000	1.532690
0.060000	1.528825
0.061000	1.525926
0.062000	1.531080
0.063000	1.531080
0.064000	1.538488
0.065000	1.552016
0.066000	1.555881
0.067000	1.567799
0.068000	1.581327
0.069000	1.582937
0.070000	1.586802
0.071000	1.584225
0.072000	1.572952
0.073000	1.557492
0.074000	1.547185
0.075000	1.538488
0.076000	1.537844
0.077000	1.521095
0.078000	1.528825
0.079000	1.530436
0.080000	1.538810
0.081000	1.545896
0.082000	1.552660
0.083000	1.562967
0.084000	1.576495
0.085000	1.586480
0.086000	1.588735
0.087000	1.582937
0.088000	1.582293
0.089000	1.570697
0.090000	1.555881
0.091000	1.546540
0.092000	1.538488
0.093000	1.533334
0.094000	1.532046
0.095000	1.533657
0.096000	1.540421
0.097000	1.541387
0.098000	1.548795
0.099000	1.560713
0.100000	1.572630
0.101000	1.582937
0.102000	1.592278
0.103000	1.590023
0.104000	1.587768
0.105000	1.580038
0.106000	1.565544
0.107000	1.553626
0.108000	1.544930
0.109000	1.535267
0.110000	1.534301
0.111000	1.533657
0.112000	1.535589
0.113000	1.536878
0.114000	1.547507
0.115000	1.555237
0.116000	1.569087
0.117000	1.573274
0.118000	1.586802
0.119000	1.589701
0.120000	1.594532
0.121000	1.585514
0.122000	1.572308
0.123000	1.561035
0.124000	1.547829
0.125000	1.539776
0.126000	1.528825
0.127000	1.532046
0.128000	1.530436
0.129000	1.532690
0.130000	1.539132
0.131000	1.552660
0.132000	1.554271
0.133000	1.563611
0.134000	1.576173
0.135000	1.584870
0.136000	1.590023
0.137000	1.585836
0.138000	1.581649
0.139000	1.569087
0.140000	1.552016
0.141000	1.540743
0.142000	1.533979
0.143000	1.530758
0.144000	1.527215
0.145000	1.528825
0.146000	1.531402
0.147000	1.535267
0.148000	1.546862
0.149000	1.560068
0.150000	1.569087
0.151000	1.578106
0.152000	1.588091
0.153000	1.585514
0.154000	1.581971
0.155000	1.576495
0.156000	1.558780
0.157000	1.548151
0.158000	1.540743
0.159000	1.534945
0.160000	1.532690
0.161000	1.526893
0.162000	1.533012
0.163000	1.536233
0.164000	1.542997
0.165000	1.549439
0.166000	1.560713
0.167000	1.572308
0.168000	1.582937
0.169000	1.588413
0.170000	1.582615
0.171000	1.582293
0.172000	1.569409
0.173000	1.552982
0.174000	1.542031
0.175000	1.539132
0.176000	1.530758
0.177000	1.527859
0.178000	1.530436
0.179000	1.529147
0.180000	1.534623
0.181000	1.543642
0.182000	1.552016
0.183000	1.560713
0.184000	1.573596
0.185000	1.584548
0.186000	1.586480
0.187000	1.581971
0.188000	1.583259
0.189000	1.562323
0.190000	1.551372
0.191000	1.543319
0.192000	1.534945
0.193000	1.530436
0.194000	1.525926
0.195000	1.529147
0.196000	1.531402
0.197000	1.540743
0.198000	1.550083
0.199000	1.555237
0.200000	1.563611
0.201000	1.579072
0.202000	1.587446
0.203000	1.586480
0.204000	1.586802
0.205000	1.577139
0.206000	1.561357
0.207000	1.546540
0.208000	1.540098
0.209000	1.530436
0.210000	1.526571
0.211000	1.529469
0.212000	1.529469
0.213000	1.535911
0.214000	1.546218
0.215000	1.552016
0.216000	1.561679
0.217000	1.571664
0.218000	1.581004
0.219000	1.592922
0.220000	1.587446
0.221000	1.585192
0.222000	1.575207
0.223000	1.560068
0.224000	1.551372
0.225000	1.540421
0.226000	1.537522
0.227000	1.529147
0.228000	1.536555
0.229000	1.538166
0.230000	1.543319
0.231000	1.549439
0.232000	1.559102
0.233000	1.571664
0.234000	1.584870
0.235000	1.593888
0.236000	1.593888
0.237000	1.590989
0.238000	1.583259
0.239000	1.570053
0.240000	1.556525
0.241000	1.546218
0.242000	1.540098
0.243000	1.533657
0.244000	1.535911
0.245000	1.527215
0.246000	1.538488
0.247000	1.546540
0.248000	1.553304
0.249000	1.564256
0.250000	1.572308
0.251000	1.588091
0.252000	1.592922
0.253000	1.593566
0.254000	1.587768
0.255000	1.587124
0.256000	1.565544
0.257000	1.550406
0.258000	1.542997
0.259000	1.536878
0.260000	1.540421
0.261000	1.534301
0.262000	1.536555
0.263000	1.540421
0.264000	1.549439
0.265000	1.557814
0.266000	1.566188
0.267000	1.576495
0.268000	1.586158
0.269000	1.589379
0.270000	1.590989
0.271000	1.584225
0.272000	1.577461
0.273000	1.559102
0.274000	1.546862
0.275000	1.541065
0.276000	1.535267
0.277000	1.527537
0.278000	1.530758
0.279000	1.534623
0.280000	1.539776
0.281000	1.551694
0.282000	1.558780
0.283000	1.566832
0.284000	1.578750
0.285000	1.587446
0.286000	1.592278
0.287000	1.588091
0.288000	1.583581
0.289000	1.570375
0.290000	1.555881
0.291000	1.544930
0.292000	1.537844
0.293000	1.532368
0.294000	1.529147
0.295000	1.531724
0.296000	1.535589
0.297000	1.542031
0.298000	1.552016
0.299000	1.561035
0.300000	1.569731
0.301000	1.585836
0.302000	1.590345
0.303000	1.593888
0.304000	1.590023
0.305000	1.585836
0.306000	1.566832
0.307000	1.554271
0.308000	1.553626
0.309000	1.540743
0.310000	1.533334
0.311000	1.535589
0.312000	1.540743
0.313000	1.543642
0.314000	1.552016
0.315000	1.562645
0.316000	1.569731
0.317000	1.582937
0.318000	1.593244
0.319000	1.596465
0.320000	1.595177
0.321000	1.592600
0.322000	1.582615
0.323000	1.565222
0.324000	1.553304
0.325000	1.546218
0.326000	1.544930
0.327000	1.540098
0.328000	1.539454
0.329000	1.543319
0.330000	1.547507
0.331000	1.553626
0.332000	1.566510
0.333000	1.573918
0.334000	1.582615
0.335000	1.594210
0.336000	1.597753
0.337000	1.596787
0.338000	1.590345
0.339000	1.575529
0.340000	1.564578
0.341000	1.552660
0.342000	1.545252
0.343000	1.541709
0.344000	1.538810
0.345000	1.544608
0.346000	1.542675
0.347000	1.548795
0.348000	1.556847
0.349000	1.568765
0.350000	1.575851
0.351000	1.587768
0.352000	1.597431
0.353000	1.594532
0.354000	1.590667
0.355000	1.581649
0.356000	1.568121
0.357000	1.552660
0.358000	1.545574
0.359000	1.538488
0.360000	1.536555
0.361000	1.530436
0.362000	1.540098
0.363000	1.540743
0.364000	1.552338
0.365000	1.560068
0.366000	1.563933
0.367000	1.575529
0.368000	1.589701
0.369000	1.593566
0.370000	1.591312
0.371000	1.587124
0.372000	1.581327
0.373000	1.564578
0.374000	1.552660
0.375000	1.545896
0.376000	1.536878
0.377000	1.532690
0.378000	1.536878
0.379000	1.538810
0.380000	1.551050
0.381000	1.550728
0.382000	1.560068
0.383000	1.570697
0.384000	1.580360
0.385000	1.593566
0.386000	1.593888
0.387000	1.593888
0.388000	1.584870
0.389000	1.573274
0.390000	1.556847
0.391000	1.549117
0.392000	1.541065
0.393000	1.534945
0.394000	1.531080
0.395000	1.530114
0.396000	1.536555
0.397000	1.539132
0.398000	1.555237
0.399000	1.562323
0.400000	1.570053
0.401000	1.583903
0.402000	1.591634
0.403000	1.590989
0.404000	1.588735
0.405000	1.578428
0.406000	1.562001
0.407000	1.551372
0.408000	1.543964
0.409000	1.536878
0.410000	1.531080
0.411000	1.529469
0.412000	1.537200
0.413000	1.533657
0.414000	1.544286
0.415000	1.554593
0.416000	1.562001
0.417000	1.571986
0.418000	1.587446
0.419000	1.589701
0.420000	1.584548
0.421000	1.588413
0.422000	1.575529
0.423000	1.560713
0.424000	1.549117
0.425000	1.540421
0.426000	1.532690
0.427000	1.529147
0.428000	1.536233
0.429000	1.536233
0.430000	1.539132
0.431000	1.546862
0.432000	1.557492
0.433000	1.569087
0.434000	1.578750
0.435000	1.586158
0.436000	1.587768
0.437000	1.586802
0.438000	1.583903
0.439000	1.563933
0.440000	1.555881
0.441000	1.541709
0.442000	1.534945
0.443000	1.527859
0.444000	1.527215
0.445000	1.532368
0.446000	1.534623
0.447000	1.542031
0.448000	1.551694
0.449000	1.556525
0.450000	1.566188
0.451000	1.578106
0.452000	1.583903
0.453000	1.586802
0.454000	1.582937
0.455000	1.577784
0.456000	1.563933
0.457000	1.552338
0.458000	1.540421
0.459000	1.535911
0.460000	1.530436
0.461000	1.528825
0.462000	1.531724
0.463000	1.536233
0.464000	1.546218
0.465000	1.554593
0.466000	1.565866
0.467000	1.577139
0.468000	1.584548
0.469000	1.590667
0.470000	1.586802
0.471000	1.577784
0.472000	1.573596
0.473000	1.556525
0.474000	1.545896
0.475000	1.539454
0.476000	1.532046
0.477000	1.532046
0.478000	1.535589
0.479000	1.539132
0.480000	1.544930
0.481000	1.552982
0.482000	1.558780
0.483000	1.565866
0.484000	1.580360
0.485000	1.587124
0.486000	1.590667
0.487000	1.586802
0.488000	1.593566
0.489000	1.564900
0.490000	1.553304
0.491000	1.544286
0.492000	1.537522
0.493000	1.532690
0.494000	1.530758
0.495000	1.527215
0.496000	1.533334
0.497000	1.537522
0.498000	1.549439
0.499000	1.556847
0.500000	1.567154
0.501000	1.581004
0.502000	1.590023
0.503000	1.589701
0.504000	1.581327
0.505000	1.577784
0.506000	1.560068
0.507000	1.547507
0.508000	1.538488
0.509000	1.532046
0.510000	1.523994
0.511000	1.529469
0.512000	1.531080
0.513000	1.534945
0.514000	1.542675
0.515000	1.548151
0.516000	1.556203
0.517000	1.571020
0.518000	1.578750
0.519000	1.582937
0.520000	1.582615
0.521000	1.580682
0.522000	1.569731
0.523000	1.552660
0.524000	1.537844
0.525000	1.532368
0.526000	1.527859
0.527000	1.523350
0.528000	1.525926
0.529000	1.529469
0.530000	1.532368
0.531000	1.542353
0.532000	1.551050
0.533000	1.569087
0.534000	1.570697
0.535000	1.581327
0.536000	1.583259
0.537000	1.582615
0.538000	1.576495
0.539000	1.560390
0.540000	1.543319
0.541000	1.538488
0.542000	1.531080
0.543000	1.528503
0.544000	1.523672
0.545000	1.528825
0.546000	1.530114
0.547000	1.537844
0.548000	1.546218
0.549000	1.552338
0.550000	1.564256
0.551000	1.575851
0.552000	1.577784
0.553000	1.580682
0.554000	1.577461
0.555000	1.565222
0.556000	1.547185
0.557000	1.543319
0.558000	1.533657
0.559000	1.525926
0.560000	1.524960
0.561000	1.521095
0.562000	1.529791
0.563000	1.534301
0.564000	1.539132
0.565000	1.546862
0.566000	1.554271
0.567000	1.567477
0.568000	1.582615
0.569000	1.575529
0.570000	1.581971
0.571000	1.576817
0.572000	1.565866
0.573000	1.552660
0.574000	1.542031
0.575000	1.535589
0.576000	1.528825
0.577000	1.523994
0.578000	1.527215
0.579000	1.530758
0.580000	1.535911
0.581000	1.547829
0.582000	1.554593
0.583000	1.558136
0.584000	1.566832
0.585000	1.583259
0.586000	1.579716
0.587000	1.589057
0.588000	1.576817
0.589000	1.561035
0.590000	1.547829
0.591000	1.539776
0.592000	1.531080
0.593000	1.527537
0.594000	1.528181
0.595000	1.531402
0.596000	1.531402
0.597000	1.536555
0.598000	1.548795
0.599000	1.556525
0.600000	1.567799
0.601000	1.576495
0.602000	1.587768
0.603000	1.581649
0.604000	1.582293
0.605000	1.572308
0.606000	1.558780
0.607000	1.550083
0.608000	1.537522
0.609000	1.528503
0.610000	1.526248
0.611000	1.532046
0.612000	1.530758
0.613000	1.535589
0.614000	1.538488
0.615000	1.552660
0.616000	1.558136
0.617000	1.570053
0.618000	1.581004
0.619000	1.583581
0.620000	1.585192
0.621000	1.578428
0.622000	1.569409
0.623000	1.548795
0.624000	1.544930
0.625000	1.534301
0.626000	1.530758
0.627000	1.525282
0.628000	1.530114
0.629000	1.533979
0.630000	1.539454
0.631000	1.547507
0.632000	1.557814
0.633000	1.562001
0.634000	1.575529
0.635000	1.581649
0.636000	1.585514
0.637000	1.575851
0.638000	1.581971
0.639000	1.566188
0.640000	1.553949
0.641000	1.540743
0.642000	1.534623
0.643000	1.526571
0.644000	1.527537
0.645000	1.531402
0.646000	1.530114
0.647000	1.537200
0.648000	1.547185
0.649000	1.556847
0.650000	1.569409
0.651000	1.578428
0.652000	1.585192
0.653000	1.586480
0.654000	1.579394
0.655000	1.573596
0.656000	1.553949
0.657000	1.548473
0.658000	1.537200
0.659000	1.527215
0.660000	1.522705
0.661000	1.527537
0.662000	1.526571
0.663000	1.530114
0.664000	1.541709
0.665000	1.551050
0.666000	1.560068
0.667000	1.568765
0.668000	1.581649
0.669000	1.585192
0.670000	1.582937
0.671000	1.578106
0.672000	1.565222
0.673000	1.553626
0.674000	1.542997
0.675000	1.532368
0.676000	1.526893
0.677000	1.524960
0.678000	1.526571
0.679000	1.529791
0.680000	1.537200
0.681000	1.541387
0.682000	1.551694
0.683000	1.561035
0.684000	1.578750
0.685000	1.588413
0.686000	1.586480
0.687000	1.584870
0.688000	1.579394
0.689000	1.563289
0.690000	1.550406
0.691000	1.539132
0.692000	1.533657
0.693000	1.525282
0.694000	1.523994
0.695000	1.529147
0.696000	1.529469
0.697000	1.541387
0.698000	1.546862
0.699000	1.553949
0.700000	1.560713
0.701000	1.571664
0.702000	1.580360
0.703000	1.582615
0.704000	1.583259
0.705000	1.569087
0.706000	1.559424
0.707000	1.540098
0.708000	1.533979
0.709000	1.527537
0.710000	1.525282
0.711000	1.529147
0.712000	1.530114
0.713000	1.530436
0.714000	1.539776
0.715000	1.551694
0.716000	1.560068
0.717000	1.572308
0.718000	1.577139
0.719000	1.585514
0.720000	1.582293
0.721000	1.579072
0.722000	1.570053
0.723000	1.554593
0.724000	1.539454
0.725000	1.535267
0.726000	1.527859
0.727000	1.525282
0.728000	1.526248
0.729000	1.532046
0.730000	1.537200
0.731000	1.547829
0.732000	1.555559
0.733000	1.566188
0.734000	1.578428
0.735000	1.585514
0.736000	1.582937
0.737000	1.583903
0.738000	1.576495
0.739000	1.562645
0.740000	1.550728
0.741000	1.541387
0.742000	1.528825
0.743000	1.530436
0.744000	1.524316
0.745000	1.527859
0.746000	1.531080
0.747000	1.536878
0.748000	1.545574
0.749000	1.556847
0.750000	1.566832
0.751000	1.580038
0.752000	1.587768
0.753000	1.583903
0.754000	1.579394
0.755000	1.571664
0.756000	1.554593
0.757000	1.544608
0.758000	1.536233
0.759000	1.531402
0.760000	1.524960
0.761000	1.524638
0.762000	1.530436
0.763000	1.528181
0.764000	1.542353
0.765000	1.551372
0.766000	1.562967
0.767000	1.575851
0.768000	1.584225
0.769000	1.589057
0.770000	1.578750
0.771000	1.584548
0.772000	1.575851
0.773000	1.558780
0.774000	1.549439
0.775000	1.541387
0.776000	1.537200
0.777000	1.532690
0.778000	1.534301
0.779000	1.538810
0.780000	1.556847
0.781000	1.556203
0.782000	1.560713
0.783000	1.571020
0.784000	1.580682
0.785000	1.589701
0.786000	1.589379
0.787000	1.585836
0.788000	1.580682
0.789000	1.565222
0.790000	1.548795
0.791000	1.536233
0.792000	1.527215
0.793000	1.522383
0.794000	1.520773
0.795000	1.524316
0.796000	1.524960
0.797000	1.531724
0.798000	1.542031
0.799000	1.548473
0.800000	1.556525
0.801000	1.569731
0.802000	1.579716
0.803000	1.577461
0.804000	1.575529
0.805000	1.562001
0.806000	1.554593
0.807000	1.537522
0.808000	1.529147
0.809000	1.523027
0.810000	1.518840
0.811000	1.519807
0.812000	1.525926
0.813000	1.519807
0.814000	1.536555
0.815000	1.547507
0.816000	1.555237
0.817000	1.567799
0.818000	1.579072
0.819000	1.581971
0.820000	1.576495
0.821000	1.579394
0.822000	1.565222
0.823000	1.550406
0.824000	1.541387
0.825000	1.532690
0.826000	1.528181
0.827000	1.526248
0.828000	1.526248
0.829000	1.527537
0.830000	1.534945
0.831000	1.542353
0.832000	1.554271
0.833000	1.565866
0.834000	1.580360
0.835000	1.588735
0.836000	1.590023
0.837000	1.589057
0.838000	1.581971
0.839000	1.567154
0.840000	1.555237
0.841000	1.548473
0.842000	1.536878
0.843000	1.534623
0.844000	1.536878
0.845000	1.540098
0.846000	1.539776
0.847000	1.547507
0.848000	1.560068
0.849000	1.570053
0.850000	1.576817
0.851000	1.583903
0.852000	1.599364
0.853000	1.596787
0.854000	1.592278
0.855000	1.582615
0.856000	1.565222
0.857000	1.554593
0.858000	1.547507
0.859000	1.540421
0.860000	1.530436
0.861000	1.538488
0.862000	1.536878
0.863000	1.545252
0.864000	1.549439
0.865000	1.557492
0.866000	1.568443
0.867000	1.583259
0.868000	1.593888
0.869000	1.597753
0.870000	1.598720
0.871000	1.587768
0.872000	1.578106
0.873000	1.566510
0.874000	1.552016
0.875000	1.545896
0.876000	1.539132
0.877000	1.537844
0.878000	1.539776
0.879000	1.541065
0.880000	1.547829
0.881000	1.554593
0.882000	1.560390
0.883000	1.580682
0.884000	1.585836
0.885000	1.594210
0.886000	1.597109
0.887000	1.590989
0.888000	1.588413
0.889000	1.571020
0.890000	1.556847
0.891000	1.547829
0.892000	1.537844
0.893000	1.536878
0.894000	1.536233
0.895000	1.534301
0.896000	1.541709
0.897000	1.545252
0.898000	1.558458
0.899000	1.563289
0.900000	1.577461
0.901000	1.587768
0.902000	1.597431
0.903000	1.592600
0.904000	1.587768
0.905000	1.581971
0.906000	1.564578
0.907000	1.553304
0.908000	1.544608
0.909000	1.536878
0.910000	1.535267
0.911000	1.536878
0.912000	1.537522
0.913000	1.538810
0.914000	1.546218
0.915000	1.559746
0.916000	1.567154
0.917000	1.581971
0.918000	1.590023
0.919000	1.592922
0.920000	1.589701
0.921000	1.584870
0.922000	1.573918
0.923000	1.554915
0.924000	1.546862
0.925000	1.539776
0.926000	1.532368
0.927000	1.531402
0.928000	1.533979
0.929000	1.533012
0.930000	1.540743
0.931000	1.546862
0.932000	1.551372
0.933000	1.567154
0.934000	1.576495
0.935000	1.583903
0.936000	1.586802
0.937000	1.583903
0.938000	1.578106
0.939000	1.564900
0.940000	1.550406
0.941000	1.540743
0.942000	1.534301
0.943000	1.529147
0.944000	1.528825
0.945000	1.530758
0.946000	1.531402
0.947000	1.537522
0.948000	1.551050
0.949000	1.560068
0.950000	1.572308
0.951000	1.585192
0.952000	1.589701
0.953000	1.590023
0.954000	1.585192
0.955000	1.578750
0.956000	1.562967
0.957000	1.549761
0.958000	1.539776
0.959000	1.535267
0.960000	1.527859
0.961000	1.530114
0.962000	1.535267
0.963000	1.536878
0.964000	1.548473
0.965000	1.554915
0.966000	1.562645
0.967000	1.575529
0.968000	1.583903
0.969000	1.587446
0.970000	1.585514
0.971000	1.578750
0.972000	1.571020
0.973000	1.554593
0.974000	1.541709
0.975000	1.539454
0.976000	1.532368
0.977000	1.528181
0.978000	1.529469
0.979000	1.535267
0.980000	1.535911
0.981000	1.553626
0.982000	1.560068
0.983000	1.570375
0.984000	1.580360
0.985000	1.585836
0.986000	1.588091
0.987000	1.582937
0.988000	1.580038
0.989000	1.564578
0.990000	1.558458
0.991000	1.544286
0.992000	1.537200
0.993000	1.531402
0.994000	1.527537
0.995000	1.533334
0.996000	1.539776
0.997000	1.542675
0.998000	1.554915
0.999000	1.561679
1.000000	1.573596
1.001000	1.584225
1.002000	1.590023
1.003000	1.590023
1.004000	1.586480
1.005000	1.575851
1.006000	1.560068
1.007000	1.545896
1.008000	1.543642
1.009000	1.528825
1.010000	1.530114
1.011000	1.533012
1.012000	1.532368
1.013000	1.537844
1.014000	1.545252
1.015000	1.555237
1.016000	1.562001
1.017000	1.573596
1.018000	1.581004
1.019000	1.587446
1.020000	1.587768
1.021000	1.582615
1.022000	1.570375
1.023000	1.556203
1.024000	1.542353
1.025000	1.535267
1.026000	1.525282
1.027000	1.531402
1.028000	1.534301
1.029000	1.525282
1.030000	1.536555
1.031000	1.548795
1.032000	1.558780
1.033000	1.564256
1.034000	1.578106
1.035000	1.586480
1.036000	1.588735
1.037000	1.584870
1.038000	1.575207
1.039000	1.560713
1.040000	1.551050
1.041000	1.538488
1.042000	1.533334
1.043000	1.526893
1.044000	1.534301
1.045000	1.533012
1.046000	1.534623
1.047000	1.542353
1.048000	1.552982
1.049000	1.558458
1.050000	1.566510
1.051000	1.584225
1.052000	1.588413
1.053000	1.589379
1.054000	1.580360
1.055000	1.575529
1.056000	1.561035
1.057000	1.550083
1.058000	1.541065
1.059000	1.532368
1.060000	1.529469
1.061000	1.532046
1.062000	1.530436
1.063000	1.535267
1.064000	1.543964
1.065000	1.552660
1.066000	1.560713
1.067000	1.576817
1.068000	1.584548
1.069000	1.590345
1.070000	1.592278
1.071000	1.579394
1.072000	1.569731
1.073000	1.552982
1.074000	1.544286
1.075000	1.536555
1.076000	1.533334
1.077000	1.533657
1.078000	1.534301
1.079000	1.534945
1.080000	1.542353
1.081000	1.549761
1.082000	1.554271
1.083000	1.565222
1.084000	1.577461
1.085000	1.585836
1.086000	1.590989
1.087000	1.587446
1.088000	1.571986
1.089000	1.562001
1.090000	1.547507
1.091000	1.544286
1.092000	1.534301
1.093000	1.530758
1.094000	1.532368
1.095000	1.532046
1.096000	1.534301
1.097000	1.540421
1.098000	1.552016
1.099000	1.559746
1.100000	1.572308
1.101000	1.582615
1.102000	1.593888
1.103000	1.590989
1.104000	1.585836
1.105000	1.580038
1.106000	1.556847
1.107000	1.545574
1.108000	1.542997
1.109000	1.534945
1.110000	1.529147
1.111000	1.531724
1.112000	1.533979
1.113000	1.537844
1.114000	1.546862
1.115000	1.553949
1.116000	1.562967
1.117000	1.576817
1.118000	1.588091
1.119000	1.589701
1.120000	1.584548
1.121000	1.582937
1.122000	1.571986
1.123000	1.555237
1.124000	1.546540
1.125000	1.538810
1.126000	1.530436
1.127000	1.532046
1.128000	1.535267
1.129000	1.534623
1.130000	1.539454
1.131000	1.546862
1.132000	1.555559
1.133000	1.567154
1.134000	1.582615
1.135000	1.592278
1.136000	1.590345
1.137000	1.588413
1.138000	1.580360
1.139000	1.561035
1.140000	1.550083
1.141000	1.542031
1.142000	1.536233
1.143000	1.533012
1.144000	1.529469
1.145000	1.532368
1.146000	1.536555
1.147000	1.542675
1.148000	1.552016
1.149000	1.561679
1.150000	1.575207
1.151000	1.584548
1.152000	1.592600
1.153000	1.589701
1.154000	1.586158
1.155000	1.574240
1.156000	1.559746
1.157000	1.548151
1.158000	1.536878
1.159000	1.532690
1.160000	1.528503
1.161000	1.531724
1.162000	1.534945
1.163000	1.540421
1.164000	1.545896
1.165000	1.557169
1.166000	1.564900
1.167000	1.571342
1.168000	1.587446
1.169000	1.588091
1.170000	1.586802
1.171000	1.581004
1.172000	1.573274
1.173000	1.555881
1.174000	1.545574
1.175000	1.537200
1.176000	1.540098
1.177000	1.521739
1.178000	1.530114
1.179000	1.534623
1.180000	1.535911
1.181000	1.545574
1.182000	1.556203
1.183000	1.567154
1.184000	1.577139
1.185000	1.583903
1.186000	1.584548
1.187000	1.582293
1.188000	1.578750
1.189000	1.561357
1.190000	1.548151
1.191000	1.540743
1.192000	1.530436
1.193000	1.527859
1.194000	1.529791
1.195000	1.527859
1.196000	1.529791
1.197000	1.541387
1.198000	1.551050
1.199000	1.558136
1.200000	1.568443
1.201000	1.580038
1.202000	1.586158
1.203000	1.586158
1.204000	1.583903
1.205000	1.577139
1.206000	1.557814
1.207000	1.545896
1.208000	1.537844
1.209000	1.529469
1.210000	1.526248
1.211000	1.531402
1.212000	1.530758
1.213000	1.537200
1.214000	1.542997
1.215000	1.554593
1.216000	1.564900
1.217000	1.573274
1.218000	1.582615
1.219000	1.589057
1.220000	1.585192
1.221000	1.581649
1.222000	1.567799
1.223000	1.554271
1.224000	1.550083
1.225000	1.534301
1.226000	1.531080
1.227000	1.526893
1.228000	1.533012
1.229000	1.531402
1.230000	1.536233
1.231000	1.548473
1.232000	1.554915
1.233000	1.568121
1.234000	1.576495
1.235000	1.582293
1.236000	1.586480
1.237000	1.588091
1.238000	1.580682
1.239000	1.567154
1.240000	1.552338
1.241000	1.542353
1.242000	1.536555
1.243000	1.532368
1.244000	1.531402
1.245000	1.527537
1.246000	1.535589
1.247000	1.542997
1.248000	1.545252
1.249000	1.557492
1.250000	1.571986
1.251000	1.583581
1.252000	1.579716
1.253000	1.590023
1.254000	1.582937
1.255000	1.572952
1.256000	1.556525
1.257000	1.546862
1.258000	1.540098
1.259000	1.534623
1.260000	1.533979
1.261000	1.535911
1.262000	1.535589
1.263000	1.541065
1.264000	1.546540
1.265000	1.558780
1.266000	1.567799
1.267000	1.579072
1.268000	1.593566
1.269000	1.594210
1.270000	1.590667
1.271000	1.588735
1.272000	1.574563
1.273000	1.559102
1.274000	1.547829
1.275000	1.538166
1.276000	1.537200
1.277000	1.534623
1.278000	1.534945
1.279000	1.535911
1.280000	1.543319
1.281000	1.549117
1.282000	1.559746
1.283000	1.566510
1.284000	1.574563
1.285000	1.587768
1.286000	1.583903
1.287000	1.584548
1.288000	1.578750
1.289000	1.557492
1.290000	1.551694
1.291000	1.536233
1.292000	1.534301
1.293000	1.526248
1.294000	1.524316
1.295000	1.534945
1.296000	1.529791
1.297000	1.538166
1.298000	1.550406
1.299000	1.562645
1.300000	1.575207
1.301000	1.583581
1.302000	1.592278
1.303000	1.592600
1.304000	1.588413
1.305000	1.577461
1.306000	1.561035
1.307000	1.549761
1.308000	1.538488
1.309000	1.532690
1.310000	1.528825
1.311000	1.532690
1.312000	1.536555
1.313000	1.534301
1.314000	1.543642
1.315000	1.557814
1.316000	1.563933
1.317000	1.576817
1.318000	1.586802
1.319000	1.589701
1.320000	1.587768
1.321000	1.580682
1.322000	1.569409
1.323000	1.556847
1.324000	1.546862
1.325000	1.537522
1.326000	1.531724
1.327000	1.533334
1.328000	1.532046
1.329000	1.533657
1.330000	1.540098
1.331000	1.545896
1.332000	1.556203
1.333000	1.567154
1.334000	1.580038
1.335000	1.588091
1.336000	1.590989
1.337000	1.585836
1.338000	1.579394
1.339000	1.562645
1.340000	1.552016
1.341000	1.534623
1.342000	1.533979
1.343000	1.526893
1.344000	1.524960
1.345000	1.530114
1.346000	1.532690
1.347000	1.536555
1.348000	1.550728
1.349000	1.553949
1.350000	1.572308
1.351000	1.577139
1.352000	1.581649
1.353000	1.582937
1.354000	1.579072
1.355000	1.567799
1.356000	1.548473
1.357000	1.539132
1.358000	1.532046
1.359000	1.525604
1.360000	1.524316
1.361000	1.527537
1.362000	1.527215
1.363000	1.533657
1.364000	1.540743
1.365000	1.551050
1.366000	1.560390
1.367000	1.571664
1.368000	1.582293
1.369000	1.586158
1.370000	1.583259
1.371000	1.576817
1.372000	1.564256
1.373000	1.549117
1.374000	1.541065
1.375000	1.530758
1.376000	1.526893
1.377000	1.525926
1.378000	1.528181
1.379000	1.531402
1.380000	1.538810
1.381000	1.546862
1.382000	1.555237
1.383000	1.564900
1.384000	1.580682
1.385000	1.587124
1.386000	1.586158
1.387000	1.587768
1.388000	1.578106
1.389000	1.562645
1.390000	1.545896
1.391000	1.539776
1.392000	1.533012
1.393000	1.525604
1.394000	1.530436
1.395000	1.528503
1.396000	1.533979
1.397000	1.542997
1.398000	1.550406
1.399000	1.564900
1.400000	1.571020
1.401000	1.581004
1.402000	1.591312
1.403000	1.586158
1.404000	1.585192
1.405000	1.569087
1.406000	1.559102
1.407000	1.550083
1.408000	1.536878
1.409000	1.529147
1.410000	1.531402
1.411000	1.529791
1.412000	1.531402
1.413000	1.533657
1.414000	1.545574
1.415000	1.555559
1.416000	1.562323
1.417000	1.571986
1.418000	1.580038
1.419000	1.583903
1.420000	1.584870
1.421000	1.580360
1.422000	1.565222
1.423000	1.552982
1.424000	1.542353
1.425000	1.534301
1.426000	1.528825
1.427000	1.524316
1.428000	1.529469
1.429000	1.530758
1.430000	1.540098
1.431000	1.550083
1.432000	1.558458
1.433000	1.567154
1.434000	1.579716
1.435000	1.586802
1.436000	1.586802
1.437000	1.581649
1.438000	1.578428
1.439000	1.562967
1.440000	1.549439
1.441000	1.539454
1.442000	1.530114
1.443000	1.527215
1.444000	1.529791
1.445000	1.530436
1.446000	1.535267
1.447000	1.543319
1.448000	1.551694
1.449000	1.559424
1.450000	1.571342
1.451000	1.583259
1.452000	1.586480
1.453000	1.586802
1.454000	1.581649
1.455000	1.574563
1.456000	1.553626
1.457000	1.545252
1.458000	1.538810
1.459000	1.532690
1.460000	1.527537
1.461000	1.531080
1.462000	1.528503
1.463000	1.534945
1.464000	1.542997
1.465000	1.555881
1.466000	1.560713
1.467000	1.572952
1.468000	1.580360
1.469000	1.582615
1.470000	1.584225
1.471000	1.577461
1.472000	1.563933
1.473000	1.542353
1.474000	1.538166
1.475000	1.533012
1.476000	1.525926
1.477000	1.523994
1.478000	1.528503
1.479000	1.532046
1.480000	1.539132
1.481000	1.547185
1.482000	1.556525
1.483000	1.567154
1.484000	1.581971
1.485000	1.587768
1.486000	1.584548
1.487000	1.581649
1.488000	1.573596
1.489000	1.557492
1.490000	1.542997
1.491000	1.536878
1.492000	1.529147
1.493000	1.523350
1.494000	1.527537
1.495000	1.527215
1.496000	1.535267
1.497000	1.536878
1.498000	1.545252
1.499000	1.554271
1.500000	1.567154
1.501000	1.576817
1.502000	1.587124
1.503000	1.583259
1.504000	1.582293
1.505000	1.570053
1.506000	1.556203
1.507000	1.542997
1.508000	1.533979
1.509000	1.527859
1.510000	1.525926
1.511000	1.529791
1.512000	1.531080
1.513000	1.535267
1.514000	1.547507
1.515000	1.552338
1.516000	1.558458
1.517000	1.573596
1.518000	1.583581
1.519000	1.583259
1.520000	1.583903
1.521000	1.573918
1.522000	1.562967
1.523000	1.550083
1.524000	1.541709
1.525000	1.534623
1.526000	1.530436
1.527000	1.528181
1.528000	1.530758
1.529000	1.531402
1.530000	1.536555
1.531000	1.544286
1.532000	1.554915
1.533000	1.566832
1.534000	1.579072
1.535000	1.585192
1.536000	1.584548
1.537000	1.584548
1.538000	1.574563
1.539000	1.561035
1.540000	1.544930
1.541000	1.542031
1.542000	1.527537
1.543000	1.524316
1.544000	1.524960
1.545000	1.528181
1.546000	1.531402
1.547000	1.539454
1.548000	1.550406
1.549000	1.555237
1.550000	1.568765
1.551000	1.580038
1.552000	1.585836
1.553000	1.586158
1.554000	1.584225
1.555000	1.569731
1.556000	1.556847
1.557000	1.547185
1.558000	1.536555
1.559000	1.529791
1.560000	1.533979
1.561000	1.532046
1.562000	1.534623
1.563000	1.531724
1.564000	1.548795
1.565000	1.546218
1.566000	1.562967
1.567000	1.575207
1.568000	1.585836
1.569000	1.589379
1.570000	1.586158
1.571000	1.585192
1.572000	1.565866
1.573000	1.551694
1.574000	1.541065
1.575000	1.533979
1.576000	1.530436
1.577000	1.528181
1.578000	1.531724
1.579000	1.530436
1.580000	1.541387
1.581000	1.546862
1.582000	1.559102
1.583000	1.565866
1.584000	1.583259
1.585000	1.590345
1.586000	1.588735
1.587000	1.585514
1.588000	1.578750
1.589000	1.563611
1.590000	1.551372
1.591000	1.541709
1.592000	1.533979
1.593000	1.529469
1.594000	1.529791
1.595000	1.532046
1.596000	1.535589
1.597000	1.544930
1.598000	1.553949
1.599000	1.563933
1.600000	1.576495
1.601000	1.585192
1.602000	1.587446
1.603000	1.590667
1.604000	1.584548
1.605000	1.574563
1.606000	1.558458
1.607000	1.545252
1.608000	1.542353
1.609000	1.532046
1.610000	1.532368
1.611000	1.530436
1.612000	1.536555
1.613000	1.541065
1.614000	1.546862
1.615000	1.558136
1.616000	1.567154
1.617000	1.576495
1.618000	1.587124
1.619000	1.587124
1.620000	1.587768
1.621000	1.581971
1.622000	1.563611
1.623000	1.550728
1.624000	1.544286
1.625000	1.530758
1.626000	1.529469
1.627000	1.532046
1.628000	1.524638
1.629000	1.535589
1.630000	1.541387
1.631000	1.546218
1.632000	1.562323
1.633000	1.568443
1.634000	1.580360
1.635000	1.588413
1.636000	1.591956
1.637000	1.588735
1.638000	1.581649
1.639000	1.565222
1.640000	1.554593
1.641000	1.544608
1.642000	1.542353
1.643000	1.538488
1.644000	1.541709
1.645000	1.544930
1.646000	1.552016
1.647000	1.556525
1.648000	1.568765
1.649000	1.576495
1.650000	1.589379
1.651000	1.600330
1.652000	1.607738
1.653000	1.594210
1.654000	1.601296
1.655000	1.587446
1.656000	1.574240
1.657000	1.562001
1.658000	1.550728
1.659000	1.542675
1.660000	1.536233
1.661000	1.537522
1.662000	1.540421
1.663000	1.543964
1.664000	1.550083
1.665000	1.557492
1.666000	1.562967
1.667000	1.578428
1.668000	1.583259
1.669000	1.587446
1.670000	1.580038
1.671000	1.576817
1.672000	1.565222
1.673000	1.546540
1.674000	1.539776
1.675000	1.534623
1.676000	1.530436
1.677000	1.527215
1.678000	1.525282
1.679000	1.532690
1.680000	1.539454
1.681000	1.550083
1.682000	1.558458
1.683000	1.566510
1.684000	1.583581
1.685000	1.586802
1.686000	1.589057
1.687000	1.584548
1.688000	1.580682
1.689000	1.561035
1.690000	1.549117
1.691000	1.537844
1.692000	1.534623
1.693000	1.529147
1.694000	1.529469
1.695000	1.535589
1.696000	1.539454
1.697000	1.539132
1.698000	1.553626
1.699000	1.561679
1.700000	1.574563
1.701000	1.582937
1.702000	1.586480
1.703000	1.587768
1.704000	1.581649
1.705000	1.575851
1.706000	1.553949
1.707000	1.544286
1.708000	1.539132
1.709000	1.533657
1.710000	1.527215
1.711000	1.531724
1.712000	1.536233
1.713000	1.537200
1.714000	1.552338
1.715000	1.560068
1.716000	1.570375
1.717000	1.575207
1.718000	1.585836
1.719000	1.593566
1.720000	1.590023
1.721000	1.584548
1.722000	1.569409
1.723000	1.553949
1.724000	1.545574
1.725000	1.534623
1.726000	1.532690
1.727000	1.530436
1.728000	1.535589
1.729000	1.534945
1.730000	1.545896
1.731000	1.551050
1.732000	1.560068
1.733000	1.566188
1.734000	1.581649
1.735000	1.580682
1.736000	1.590023
1.737000	1.582293
1.738000	1.575207
1.739000	1.562001
1.740000	1.549439
1.741000	1.540098
1.742000	1.534623
1.743000	1.528825
1.744000	1.531080
1.745000	1.531724
1.746000	1.532690
1.747000	1.539132
1.748000	1.552982
1.749000	1.560713
1.750000	1.572308
1.751000	1.579072
1.752000	1.588735
1.753000	1.588413
1.754000	1.583581
1.755000	1.574563
1.756000	1.562323
1.757000	1.549439
1.758000	1.540743
1.759000	1.532690
1.760000	1.530114
1.761000	1.531402
1.762000	1.534623
1.763000	1.537522
1.764000	1.546862
1.765000	1.556203
1.766000	1.565222
1.767000	1.577139
1.768000	1.583581
1.769000	1.582937
1.770000	1.586480
1.771000	1.581649
1.772000	1.568121
1.773000	1.552338
1.774000	1.538488
1.775000	1.532046
1.776000	1.529469
1.777000	1.529791
1.778000	1.529147
1.779000	1.531402
1.780000	1.540098
1.781000	1.546862
1.782000	1.556203
1.783000	1.568765
1.784000	1.578750
1.785000	1.586802
1.786000	1.588413
1.787000	1.586480
1.788000	1.576495
1.789000	1.560068
1.790000	1.550728
1.791000	1.536555
1.792000	1.533012
1.793000	1.526248
1.794000	1.530114
1.795000	1.528825
1.796000	1.534623
1.797000	1.535911
1.798000	1.552016
1.799000	1.561357
1.800000	1.572952
1.801000	1.583903
1.802000	1.586158
1.803000	1.587124
1.804000	1.582937
1.805000	1.572308
1.806000	1.556847
1.807000	1.545574
1.808000	1.536555
1.809000	1.530758
1.810000	1.523994
1.811000	1.532690
1.812000	1.538166
1.813000	1.541387
1.814000	1.551050
1.815000	1.557814
1.816000	1.567154
1.817000	1.574563
1.818000	1.580682
1.819000	1.591312
1.820000	1.590023
1.821000	1.573596
1.822000	1.570053
1.823000	1.555237
1.824000	1.544930
1.825000	1.539132
1.826000	1.530436
1.827000	1.532046
1.828000	1.532046
1.829000	1.534945
1.830000	1.542675
1.831000	1.554915
1.832000	1.563611
1.833000	1.575529
1.834000	1.585192
1.835000	1.590989
1.836000	1.591956
1.837000	1.588091
1.838000	1.574885
1.839000	1.571986
1.840000	1.552660
1.841000	1.544930
1.842000	1.536878
1.843000	1.532368
1.844000	1.532368
1.845000	1.535589
1.846000	1.541387
1.847000	1.549117
1.848000	1.558136
1.849000	1.566188
1.850000	1.577139
1.851000	1.591312
1.852000	1.592278
1.853000	1.591956
1.854000	1.585192
1.855000	1.581971
1.856000	1.560068
1.857000	1.549117
1.858000	1.539776
1.859000	1.535589
1.860000	1.534945
1.861000	1.534623
1.862000	1.533012
1.863000	1.544608
1.864000	1.547185
1.865000	1.560068
1.866000	1.566832
1.867000	1.579072
1.868000	1.586158
1.869000	1.590667
1.870000	1.587124
1.871000	1.583903
1.872000	1.566510
1.873000	1.548795
1.874000	1.544608
1.875000	1.536878
1.876000	1.529469
1.877000	1.533012
1.878000	1.537522
1.879000	1.535589
1.880000	1.546862
1.881000	1.554271
1.882000	1.562323
1.883000	1.577461
1.884000	1.583903
1.885000	1.593566
1.886000	1.593566
1.887000	1.589057
1.888000	1.580360
1.889000	1.562645
1.890000	1.550728
1.891000	1.541387
1.892000	1.535589
1.893000	1.531080
1.894000	1.536555
1.895000	1.540743
1.896000	1.541387
1.897000	1.547185
1.898000	1.555881
1.899000	1.566188
1.900000	1.579716
1.901000	1.589379
1.902000	1.591956
1.903000	1.592600
1.904000	1.588413
1.905000	1.578106
1.906000	1.560713
1.907000	1.548795
1.908000	1.542353
1.909000	1.537200
1.910000	1.533012
1.911000	1.532368
1.912000	1.538166
1.913000	1.542353
1.914000	1.554593
1.915000	1.560068
1.916000	1.569409
1.917000	1.581327
1.918000	1.590023
1.919000	1.595177
1.920000	1.588735
1.921000	1.583259
1.922000	1.566510
1.923000	1.551050
1.924000	1.549761
1.925000	1.541065
1.926000	1.531402
1.927000	1.533657
1.928000	1.533012
1.929000	1.535589
1.930000	1.540743
1.931000	1.551372
1.932000	1.563289
1.933000	1.572308
1.934000	1.581327
1.935000	1.586802
1.936000	1.587446
1.937000	1.583903
1.938000	1.574885
1.939000	1.559102
1.940000	1.548795
1.941000	1.540743
1.942000	1.533657
1.943000	1.528825
1.944000	1.528503
1.945000	1.531080
1.946000	1.537522
1.947000	1.546862
1.948000	1.557169
1.949000	1.560390
1.950000	1.573918
1.951000	1.582937
1.952000	1.590667
1.953000	1.589057
1.954000	1.579394
1.955000	1.570053
1.956000	1.557814
1.957000	1.544608
1.958000	1.536878
1.959000	1.529147
1.960000	1.527537
1.961000	1.531080
1.962000	1.535267
1.963000	1.542031
1.964000	1.551050
1.965000	1.559102
1.966000	1.564256
1.967000	1.575851
1.968000	1.585514
1.969000	1.589379
1.970000	1.587768
1.971000	1.582615
1.972000	1.568443
1.973000	1.555237
1.974000	1.542031
1.975000	1.534945
1.976000	1.530114
1.977000	1.528503
1.978000	1.531402
1.979000	1.536233
1.980000	1.543642
1.981000	1.550728
1.982000	1.558780
1.983000	1.571342
1.984000	1.580360
1.985000	1.590345
1.986000	1.587124
1.987000	1.583581
1.988000	1.575207
1.989000	1.560713
1.990000	1.551372
1.991000	1.540743
1.992000	1.532368
1.993000	1.530436
1.994000	1.529469
1.995000	1.532046
1.996000	1.537200
1.997000	1.544286
1.998000	1.553304
1.999000	1.562323
2.000000	1.570053
2.001000	1.582937
2.002000	1.587124
2.003000	1.586802
2.004000	1.579072
2.005000	1.568443
2.006000	1.549439
2.007000	1.545252
2.008000	1.533979
2.009000	1.531402
2.010000	1.528825
2.011000	1.531402
2.012000	1.537522
2.013000	1.537200
2.014000	1.544608
2.015000	1.555881
2.016000	1.564256
2.017000	1.576817
2.018000	1.584225
2.019000	1.588735
2.020000	1.585514
2.021000	1.582293
2.022000	1.559424
2.023000	1.548473
2.024000	1.534623
2.025000	1.527537
2.026000	1.529469
2.027000	1.524638
2.028000	1.530114
2.029000	1.531080
2.030000	1.539454
2.031000	1.546540
2.032000	1.552016
2.033000	1.565222
2.034000	1.574885
2.035000	1.587124
2.036000	1.585836
2.037000	1.582615
2.038000	1.572308
2.039000	1.558458
2.040000	1.549439
2.041000	1.536878
2.042000	1.534945
2.043000	1.530436
2.044000	1.530436
2.045000	1.533979
2.046000	1.537200
2.047000	1.545574
2.048000	1.552338
2.049000	1.562645
2.050000	1.572952
2.051000	1.583259
2.052000	1.589379
2.053000	1.584870
2.054000	1.584225
2.055000	1.570375
2.056000	1.553626
2.057000	1.541709
2.058000	1.530436
2.059000	1.528503
2.060000	1.527537
2.061000	1.528181
2.062000	1.531402
2.063000	1.539454
2.064000	1.547829
2.065000	1.555881
2.066000	1.564900
2.067000	1.577139
2.068000	1.583903
2.069000	1.585836
2.070000	1.587446
2.071000	1.578750
2.072000	1.563289
2.073000	1.548795
2.074000	1.542031
2.075000	1.530114
2.076000	1.526893
2.077000	1.528503
2.078000	1.531080
2.079000	1.529791
2.080000	1.539454
2.081000	1.548151
2.082000	1.555559
2.083000	1.564578
2.084000	1.577461
2.085000	1.584548
2.086000	1.584225
2.087000	1.578428
2.088000	1.572308
2.089000	1.553626
2.090000	1.543642
2.091000	1.534301
2.092000	1.526248
2.093000	1.528503
2.094000	1.529469
2.095000	1.530758
2.096000	1.533657
2.097000	1.541709
2.098000	1.551050
2.099000	1.558458
2.100000	1.569409
2.101000	1.579394
2.102000	1.586802
2.103000	1.580682
2.104000	1.579072
2.105000	1.568121
2.106000	1.551050
2.107000	1.542997
2.108000	1.535911
2.109000	1.530758
2.110000	1.529469
2.111000	1.535267
2.112000	1.530436
2.113000	1.534301
2.114000	1.549439
2.115000	1.557169
2.116000	1.563611
2.117000	1.581004
2.118000	1.584870
2.119000	1.585836
2.120000	1.582293
2.121000	1.576495
2.122000	1.560390
2.123000	1.547185
2.124000	1.539454
2.125000	1.533657
2.126000	1.531724
2.127000	1.526893
2.128000	1.528825
2.129000	1.533012
2.130000	1.536555
2.131000	1.547507
2.132000	1.556847
2.133000	1.564900
2.134000	1.579072
2.135000	1.585836
2.136000	1.581004
2.137000	1.579716
2.138000	1.567154
2.139000	1.548473
2.140000	1.543964
2.141000	1.528181
2.142000	1.526893
2.143000	1.519484
2.144000	1.512720
2.145000	1.522061
2.146000	1.527859
2.147000	1.535267
2.148000	1.554271
2.149000	1.555559
2.150000	1.570053
2.151000	1.581649
2.152000	1.583903
2.153000	1.581649
2.154000	1.579716
2.155000	1.566510
2.156000	1.554271
2.157000	1.545252
2.158000	1.533657
2.159000	1.529147
2.160000	1.527859
2.161000	1.533657
2.162000	1.528503
2.163000	1.533334
2.164000	1.542675
2.165000	1.556203
2.166000	1.560068
2.167000	1.568443
2.168000	1.579394
2.169000	1.582937
2.170000	1.579072
2.171000	1.572308
2.172000	1.559746
2.173000	1.546862
2.174000	1.538166
2.175000	1.531402
2.176000	1.526248
2.177000	1.524960
2.178000	1.527859
2.179000	1.528181
2.180000	1.538166
2.181000	1.548151
2.182000	1.556847
2.183000	1.562323
2.184000	1.577139
2.185000	1.581649
2.186000	1.581004
2.187000	1.577461
2.188000	1.570053
2.189000	1.555237
2.190000	1.539454
2.191000	1.533979
2.192000	1.529791
2.193000	1.524316
2.194000	1.526248
2.195000	1.528825
2.196000	1.532690
2.197000	1.543642
2.198000	1.544608
2.199000	1.559102
2.200000	1.570375
2.201000	1.573596
2.202000	1.575207
2.203000	1.577461
2.204000	1.572308
2.205000	1.561679
2.206000	1.547185
2.207000	1.535267
2.208000	1.524638
2.209000	1.521417
2.210000	1.523350
2.211000	1.522705
2.212000	1.529147
2.213000	1.533334
2.214000	1.540421
2.215000	1.546540
2.216000	1.558780
2.217000	1.567799
2.218000	1.579072
2.219000	1.581004
2.220000	1.575529
2.221000	1.569087
2.222000	1.556203
2.223000	1.546218
2.224000	1.537200
2.225000	1.527859
2.226000	1.526893
2.227000	1.524316
2.228000	1.526893
2.229000	1.529791
2.230000	1.537522
2.231000	1.546862
2.232000	1.555237
2.233000	1.562001
2.234000	1.571342
2.235000	1.575529
2.236000	1.577461
2.237000	1.576817
2.238000	1.560713
2.239000	1.548795
2.240000	1.534945
2.241000	1.530758
2.242000	1.520773
2.243000	1.521739
2.244000	1.521417
2.245000	1.524316
2.246000	1.531080
2.247000	1.538166
2.248000	1.547829
2.249000	1.553949
2.250000	1.564256
2.251000	1.575207
2.252000	1.582293
2.253000	1.574563
2.254000	1.573918
2.255000	1.558458
2.256000	1.546540
2.257000	1.534301
2.258000	1.529147
2.259000	1.526248
2.260000	1.518518
2.261000	1.526248
2.262000	1.527215
2.263000	1.535911
2.264000	1.542675
2.265000	1.554593
2.266000	1.560390
2.267000	1.571020
2.268000	1.577461
2.269000	1.582293
2.270000	1.581649
2.271000	1.572308
2.272000	1.558780
2.273000	1.542353
2.274000	1.531724
2.275000	1.529469
2.276000	1.522705
2.277000	1.524638
2.278000	1.526571
2.279000	1.529469
2.280000	1.540743
2.281000	1.544930
2.282000	1.554593
2.283000	1.562001
2.284000	1.572952
2.285000	1.577784
2.286000	1.572952
2.287000	1.571020
2.288000	1.561035
2.289000	1.547185
2.290000	1.537200
2.291000	1.526893
2.292000	1.520451
2.293000	1.510788
2.294000	1.516908
2.295000	1.526571
2.296000	1.529147
2.297000	1.533979
2.298000	1.545896
2.299000	1.551372
2.300000	1.556203
2.301000	1.559746
2.302000	1.562645
2.303000	1.559424
2.304000	1.548795
2.305000	1.539454
2.306000	1.523027
2.307000	1.509822
2.308000	1.502413
2.309000	1.495005
2.310000	1.495327
2.311000	1.501447
2.312000	1.504024
2.313000	1.513365
2.314000	1.521739
2.315000	1.527215
2.316000	1.534623
2.317000	1.543319
2.318000	1.544608
2.319000	1.539132
2.320000	1.535911
2.321000	1.523350
2.322000	1.508855
2.323000	1.492428
2.324000	1.476324
2.325000	1.466983
2.326000	1.457642
2.327000	1.452489
2.328000	1.454421
2.329000	1.450556
2.330000	1.448624
2.331000	1.449912
2.332000	1.449912
2.333000	1.444759
2.334000	1.439283
2.335000	1.425433
2.336000	1.404497
2.337000	1.377119
2.338000	1.346198
2.339000	1.299816
2.340000	1.251180
2.341000	1.185473
2.342000	1.109458
2.343000	0.859835
2.344000	-0.018516
2.345000	-0.113534
2.346000	-0.122874
2.347000	-0.116755
2.348000	-0.095174
2.349000	-0.045572
2.350000	0.016915
2.351000	0.079079
2.352000	0.130936
2.353000	0.165078
2.354000	0.201152
2.355000	0.242703
2.356000	0.320649
2.357000	0.441435
2.358000	0.581868
2.359000	0.673665
2.360000	2.311838
2.361000	2.770179
2.362000	2.775977
2.363000	2.769535
2.364000	2.769535
2.365000	2.766636
2.366000	2.768246
2.367000	2.767280
2.368000	2.767602
2.369000	2.766314
2.370000	2.766314
2.371000	2.768246
2.372000	2.769535
2.373000	2.766636
2.374000	2.766958
2.375000	2.767280
2.376000	2.765026
2.377000	2.766958
2.378000	2.766958
2.379000	2.765348
2.380000	2.768246
2.381000	2.768891
2.382000	2.766958
2.383000	2.767924
2.384000	2.767924
2.385000	2.768246
2.386000	2.762127
2.387000	2.765670
2.388000	2.773722
2.389000	2.768891
2.390000	2.768569
2.391000	2.769213
2.392000	2.768569
2.393000	2.766958
2.394000	2.768569
2.395000	2.765348
2.396000	2.767602
2.397000	2.767280
2.398000	2.765348
2.399000	2.766314
2.400000	2.767602
2.401000	2.767924
2.402000	2.767602
2.403000	2.766314
2.404000	2.767924
2.405000	2.765348
2.406000	2.767602
2.407000	2.768246
2.408000	2.765026
2.409000	2.769857
2.410000	2.769535
2.411000	2.767280
2.412000	2.767602
2.413000	2.768569
2.414000	2.765992
2.415000	2.768246
2.416000	2.766958
2.417000	2.766636
2.418000	2.764381
2.419000	2.770179
2.420000	2.769535
2.421000	2.767280
2.422000	2.767924
2.423000	2.766958
2.424000	2.771790
2.425000	2.769213
2.426000	2.769213
2.427000	2.769213
2.428000	2.770501
2.429000	2.768891
2.430000	2.765992
2.431000	2.769857
2.432000	2.768246
2.433000	2.764381
2.434000	2.769535
2.435000	2.767924
2.436000	2.769213
2.437000	2.768246
2.438000	2.765992
2.439000	2.767924
2.440000	2.767602
2.441000	2.767280
2.442000	2.767602
2.443000	2.771790
2.444000	2.768246
2.445000	2.767924
2.446000	2.769213
2.447000	2.767280
2.448000	2.769857
2.449000	2.766314
2.450000	2.767924
2.451000	2.771145
2.452000	2.766636
2.453000	2.768246
2.454000	2.769213
2.455000	2.748921
2.456000	2.575311
2.457000	2.497364
2.458000	2.461290
2.459000	2.409110
2.460000	2.359830
2.461000	2.307650
2.462000	2.254182
2.463000	2.203614
2.464000	2.164318
2.465000	2.121479
2.466000	2.087015
2.467000	2.053195
2.468000	2.024851
2.469000	1.989743
2.470000	1.952058
2.471000	1.915339
2.472000	1.875721
2.473000	1.836748
2.474000	1.805182
2.475000	1.780059
2.476000	1.758156
2.477000	1.747205
2.478000	1.741085
2.479000	1.730778
2.480000	1.723370
2.481000	1.712419
2.482000	1.706299
2.483000	1.704045
2.484000	1.696314
2.485000	1.685041
2.486000	1.670869
2.487000	1.654764
2.488000	1.633184
2.489000	1.603551
2.490000	1.581971
2.491000	1.565222
2.492000	1.554915
2.493000	1.536878
2.494000	1.536878
2.495000	1.542353
2.496000	1.538166
2.497000	1.543642
2.498000	1.551372
2.499000	1.552016
2.500000	1.557492
2.501000	1.565544
2.502000	1.566510
2.503000	1.560068
2.504000	1.551050
2.505000	1.537844
2.506000	1.519807
2.507000	1.508855
2.508000	1.496616
2.509000	1.491784
2.510000	1.494683
2.511000	1.497260
2.512000	1.499837
2.513000	1.509822
2.514000	1.518840
2.515000	1.528181
2.516000	1.536555
2.517000	1.549117
2.518000	1.559746
2.519000	1.566510
2.520000	1.563933
2.521000	1.558136
2.522000	1.544286
2.523000	1.530114
2.524000	1.526571
2.525000	1.515297
2.526000	1.509499
2.527000	1.515297
2.528000	1.515297
2.529000	1.520773
2.530000	1.526248
2.531000	1.537200
2.532000	1.547507
2.533000	1.555881
2.534000	1.568765
2.535000	1.573274
2.536000	1.575529
2.537000	1.569087
2.538000	1.561035
2.539000	1.546218
2.540000	1.530436
2.541000	1.527537
2.542000	1.517874
2.543000	1.516586
2.544000	1.513687
2.545000	1.519484
2.546000	1.524960
2.547000	1.536233
2.548000	1.543964
2.549000	1.556525
2.550000	1.565544
2.551000	1.577139
2.552000	1.584225
2.553000	1.580682
2.554000	1.580360
2.555000	1.565544
2.556000	1.559102
2.557000	1.552338
2.558000	1.537844
2.559000	1.532368
2.560000	1.530436
2.561000	1.532690
2.562000	1.534945
2.563000	1.542997
2.564000	1.553304
2.565000	1.561035
2.566000	1.574240
2.567000	1.587124
2.568000	1.590989
2.569000	1.588735
2.570000	1.592278
2.571000	1.583581
2.572000	1.568443
2.573000	1.554915
2.574000	1.543964
2.575000	1.532690
2.576000	1.531402
2.577000	1.530758
2.578000	1.530436
2.579000	1.534301
2.580000	1.537844
2.581000	1.548473
2.582000	1.555237
2.583000	1.567154
2.584000	1.573918
2.585000	1.578750
2.586000	1.576495
2.587000	1.574885
2.588000	1.564256
2.589000	1.547185
2.590000	1.538166
2.591000	1.530114
2.592000	1.522383
2.593000	1.519484
2.594000	1.522383
2.595000	1.519484
2.596000	1.523672
2.597000	1.535589
2.598000	1.544608
2.599000	1.557169
2.600000	1.566188
2.601000	1.573918
2.602000	1.579394
2.603000	1.578106
2.604000	1.571664
2.605000	1.558780
2.606000	1.545252
2.607000	1.535911
2.608000	1.529791
2.609000	1.521739
2.610000	1.521417
2.611000	1.521739
2.612000	1.525282
2.613000	1.527859
2.614000	1.541387
2.615000	1.546540
2.616000	1.560390
2.617000	1.568121
2.618000	1.580360
2.619000	1.582615
2.620000	1.577461
2.621000	1.573274
2.622000	1.555559
2.623000	1.544286
2.624000	1.536555
2.625000	1.528181
2.626000	1.526893
2.627000	1.519807
2.628000	1.529147
2.629000	1.526893
2.630000	1.536555
2.631000	1.546862
2.632000	1.550406
2.633000	1.561035
2.634000	1.574885
2.635000	1.580682
2.636000	1.580360
2.637000	1.577139
2.638000	1.568121
2.639000	1.550083
2.640000	1.535911
2.641000	1.532368
2.642000	1.522705
2.643000	1.523027
2.644000	1.521739
2.645000	1.528181
2.646000	1.533012
2.647000	1.537522
2.648000	1.550728
2.649000	1.562001
2.650000	1.579394
2.651000	1.582937
2.652000	1.588091
2.653000	1.585514
2.654000	1.578750
2.655000	1.570375
2.656000	1.555881
2.657000	1.542997
2.658000	1.534623
2.659000	1.527537
2.660000	1.525282
2.661000	1.527537
2.662000	1.530114
2.663000	1.535589
2.664000	1.547185
2.665000	1.553949
2.666000	1.561035
2.667000	1.571342
2.668000	1.577461
2.669000	1.578750
2.670000	1.576817
2.671000	1.571020
2.672000	1.557814
2.673000	1.549761
2.674000	1.536233
2.675000	1.526248
2.676000	1.519807
2.677000	1.519807
2.678000	1.516908
2.679000	1.518840
2.680000	1.530436
2.681000	1.541065
2.682000	1.549117
2.683000	1.562645
2.684000	1.570375
2.685000	1.580360
2.686000	1.578750
2.687000	1.572308
2.688000	1.560068
2.689000	1.547185
2.690000	1.533334
2.691000	1.527537
2.692000	1.517552
2.693000	1.518840
2.694000	1.519162
2.695000	1.523672
2.696000	1.523994
2.697000	1.531724
2.698000	1.544286
2.699000	1.551372
2.700000	1.564900
2.701000	1.570697
2.702000	1.578428
2.703000	1.573274
2.704000	1.560713
2.705000	1.556525
2.706000	1.541065
2.707000	1.530114
2.708000	1.521739
2.709000	1.518196
2.710000	1.515619
2.711000	1.518840
2.712000	1.518196
2.713000	1.525282
2.714000	1.534623
2.715000	1.541065
2.716000	1.552338
2.717000	1.563289
2.718000	1.572952
2.719000	1.571342
2.720000	1.567477
2.721000	1.560390
2.722000	1.546218
2.723000	1.536233
2.724000	1.526571
2.725000	1.518196
2.726000	1.512720
2.727000	1.510788
2.728000	1.513687
2.729000	1.517230
2.730000	1.523350
2.731000	1.533979
2.732000	1.538810
2.733000	1.555881
2.734000	1.563611
2.735000	1.572308
2.736000	1.570375
2.737000	1.563933
2.738000	1.556525
2.739000	1.542997
2.740000	1.531402
2.741000	1.521095
2.742000	1.517552
2.743000	1.513365
2.744000	1.514653
2.745000	1.517874
2.746000	1.520773
2.747000	1.528503
2.748000	1.540743
2.749000	1.548795
2.750000	1.560713
2.751000	1.575529
2.752000	1.574563
2.753000	1.571664
2.754000	1.567154
2.755000	1.553304
2.756000	1.540098
2.757000	1.530436
2.758000	1.523994
2.759000	1.515297
2.760000	1.509822
2.761000	1.518518
2.762000	1.520129
2.763000	1.527537
2.764000	1.538166
2.765000	1.542675
2.766000	1.551694
2.767000	1.565544
2.768000	1.571986
2.769000	1.572952
2.770000	1.578106
2.771000	1.560068
2.772000	1.548473
2.773000	1.532690
2.774000	1.528503
2.775000	1.515941
2.776000	1.516263
2.777000	1.514653
2.778000	1.516263
2.779000	1.519807
2.780000	1.524316
2.781000	1.537844
2.782000	1.543964
2.783000	1.556847
2.784000	1.565222
2.785000	1.572630
2.786000	1.572952
2.787000	1.571020
2.788000	1.561357
2.789000	1.543642
2.790000	1.533012
2.791000	1.522061
2.792000	1.519484
2.793000	1.515297
2.794000	1.518196
2.795000	1.514653
2.796000	1.522705
2.797000	1.528181
2.798000	1.540098
2.799000	1.547507
2.800000	1.562001
2.801000	1.568443
2.802000	1.572952
2.803000	1.575207
2.804000	1.567799
2.805000	1.552660
2.806000	1.540421
2.807000	1.528825
2.808000	1.523350
2.809000	1.516263
2.810000	1.518840
2.811000	1.515619
2.812000	1.522061
2.813000	1.525282
2.814000	1.536233
2.815000	1.547185
2.816000	1.552982
2.817000	1.569087
2.818000	1.576495
2.819000	1.580360
2.820000	1.576817
2.821000	1.567154
2.822000	1.547829
2.823000	1.539132
2.824000	1.525282
2.825000	1.521417
2.826000	1.518196
2.827000	1.515297
2.828000	1.518518
2.829000	1.523027
2.830000	1.529469
2.831000	1.539132
2.832000	1.545574
2.833000	1.558780
2.834000	1.570697
2.835000	1.579716
2.836000	1.575529
2.837000	1.572630
2.838000	1.562001
2.839000	1.545896
2.840000	1.535589
2.841000	1.526571
2.842000	1.519162
2.843000	1.517552
2.844000	1.515619
2.845000	1.522383
2.846000	1.527537
2.847000	1.533657
2.848000	1.544286
2.849000	1.551372
2.850000	1.565866
2.851000	1.576173
2.852000	1.578106
2.853000	1.576173
2.854000	1.572630
2.855000	1.558136
2.856000	1.538810
2.857000	1.524638
2.858000	1.527215
2.859000	1.523994
2.860000	1.522383
2.861000	1.522383
2.862000	1.527859
2.863000	1.530758
2.864000	1.540098
2.865000	1.544930
2.866000	1.556525
2.867000	1.571664
2.868000	1.578428
2.869000	1.581004
2.870000	1.577139
2.871000	1.569409
2.872000	1.554271
2.873000	1.541387
2.874000	1.530436
2.875000	1.525282
2.876000	1.519484
2.877000	1.517874
2.878000	1.517874
2.879000	1.526248
2.880000	1.533012
2.881000	1.541387
2.882000	1.553949
2.883000	1.565866
2.884000	1.575851
2.885000	1.580038
2.886000	1.579394
2.887000	1.573274
2.888000	1.563933
2.889000	1.548473
2.890000	1.540743
2.891000	1.531402
2.892000	1.527859
2.893000	1.525282
2.894000	1.524316
2.895000	1.523994
2.896000	1.529791
2.897000	1.539454
2.898000	1.549761
2.899000	1.558458
2.900000	1.570375
2.901000	1.584225
2.902000	1.582615
2.903000	1.582615
2.904000	1.576495
2.905000	1.558136
2.906000	1.545896
2.907000	1.537844
2.908000	1.532046
2.909000	1.522705
2.910000	1.520129
2.911000	1.524960
2.912000	1.524316
2.913000	1.527859
2.914000	1.550406
2.915000	1.550406
2.916000	1.558458
2.917000	1.569731
2.918000	1.581649
2.919000	1.579716
2.920000	1.575851
2.921000	1.568765
2.922000	1.555559
2.923000	1.542675
2.924000	1.535589
2.925000	1.527859
2.926000	1.511110
2.927000	1.514009
2.928000	1.516263
2.929000	1.518518
2.930000	1.531080
2.931000	1.545574
2.932000	1.551372
2.933000	1.566832
2.934000	1.574563
2.935000	1.581327
2.936000	1.579394
2.937000	1.576817
2.938000	1.566188
2.939000	1.545896
2.940000	1.537844
2.941000	1.529791
2.942000	1.523350
2.943000	1.521095
2.944000	1.530436
2.945000	1.523027
2.946000	1.532368
2.947000	1.540098
2.948000	1.549761
2.949000	1.556525
2.950000	1.573596
2.951000	1.581971
2.952000	1.584225
2.953000	1.581649
2.954000	1.575529
2.955000	1.568121
2.956000	1.550406
2.957000	1.541387
2.958000	1.529147
2.959000	1.518840
2.960000	1.524960
2.961000	1.521417
2.962000	1.535589
2.963000	1.536878
2.964000	1.549117
2.965000	1.555881
2.966000	1.567154
2.967000	1.576817
2.968000	1.586802
2.969000	1.580682
2.970000	1.582937
2.971000	1.577461
2.972000	1.567799
2.973000	1.550083
2.974000	1.539454
2.975000	1.535589
2.976000	1.528825
2.977000	1.529469
2.978000	1.531080
2.979000	1.534623
2.980000	1.541387
2.981000	1.549439
2.982000	1.563611
2.983000	1.569409
2.984000	1.578750
2.985000	1.586480
2.986000	1.585514
2.987000	1.581971
2.988000	1.571986
2.989000	1.556847
2.990000	1.546862
2.991000	1.533979
2.992000	1.529469
2.993000	1.530758
2.994000	1.528503
2.995000	1.531402
2.996000	1.537522
2.997000	1.544608
2.998000	1.552338
2.999000	1.561035
3.000000	1.575207
3.001000	1.592278
3.002000	1.587124
3.003000	1.583581
3.004000	1.580360
3.005000	1.564900
3.006000	1.550083
3.007000	1.537522
3.008000	1.533012
3.009000	1.526248
3.010000	1.523672
3.011000	1.520129
3.012000	1.526571
3.013000	1.535911
3.014000	1.545574
3.015000	1.554915
3.016000	1.560390
3.017000	1.574563
3.018000	1.587124
3.019000	1.584225
3.020000	1.587124
3.021000	1.579394
3.022000	1.563933
3.023000	1.551050
3.024000	1.543319
3.025000	1.536233
3.026000	1.531724
3.027000	1.532690
3.028000	1.531724
3.029000	1.536878
3.030000	1.543319
3.031000	1.550728
3.032000	1.556525
3.033000	1.569409
3.034000	1.580682
3.035000	1.588413
3.036000	1.586480
3.037000	1.582293
3.038000	1.574885
3.039000	1.556525
3.040000	1.546218
3.041000	1.533657
3.042000	1.531402
3.043000	1.522383
3.044000	1.526893
3.045000	1.531724
3.046000	1.531080
3.047000	1.538810
3.048000	1.543319
3.049000	1.556847
3.050000	1.569409
3.051000	1.575529
3.052000	1.579072
3.053000	1.575529
3.054000	1.571986
3.055000	1.552660
3.056000	1.541065
3.057000	1.529147
3.058000	1.523672
3.059000	1.518518
3.060000	1.522383
3.061000	1.523350
3.062000	1.525926
3.063000	1.542031
3.064000	1.550083
3.065000	1.555881
3.066000	1.567799
3.067000	1.579072
3.068000	1.591312
3.069000	1.591634
3.070000	1.587124
3.071000	1.572952
3.072000	1.566188
3.073000	1.550083
3.074000	1.541709
3.075000	1.533334
3.076000	1.528503
3.077000	1.525604
3.078000	1.529791
3.079000	1.530114
3.080000	1.535589
3.081000	1.545574
3.082000	1.553949
3.083000	1.567477
3.084000	1.573918
3.085000	1.581971
3.086000	1.578750
3.087000	1.580360
3.088000	1.566510
3.089000	1.549761
3.090000	1.538810
3.091000	1.528181
3.092000	1.520773
3.093000	1.520129
3.094000	1.523994
3.095000	1.523027
3.096000	1.523994
3.097000	1.536555
3.098000	1.541065
3.099000	1.555881
3.100000	1.572952
3.101000	1.579394
3.102000	1.584225
3.103000	1.582937
3.104000	1.582615
3.105000	1.570053
3.106000	1.557169
3.107000	1.552338
3.108000	1.549761
3.109000	1.551694
3.110000	1.549439
3.111000	1.549117
3.112000	1.546218
3.113000	1.550728
3.114000	1.552660
3.115000	1.559746
3.116000	1.565222
3.117000	1.573274
3.118000	1.573596
3.119000	1.568765
3.120000	1.567154
3.121000	1.553626
3.122000	1.534623
3.123000	1.523994
3.124000	1.517230
3.125000	1.513365
3.126000	1.514331
3.127000	1.519162
3.128000	1.519807
3.129000	1.530758
3.130000	1.541709
3.131000	1.552982
3.132000	1.561679
3.133000	1.577461
3.134000	1.585836
3.135000	1.593244
3.136000	1.591956
3.137000	1.585192
3.138000	1.563289
3.139000	1.550406
3.140000	1.535267
3.141000	1.527537
3.142000	1.527215
3.143000	1.515297
3.144000	1.518518
3.145000	1.527215
3.146000	1.523994
3.147000	1.537522
3.148000	1.539776
3.149000	1.542997
3.150000	1.556203
3.151000	1.569087
3.152000	1.565866
3.153000	1.562967
3.154000	1.562645
3.155000	1.544286
3.156000	1.538810
3.157000	1.525926
3.158000	1.515619
3.159000	1.517230
3.160000	1.511754
3.161000	1.520451
3.162000	1.516586
3.163000	1.509822
3.164000	1.527537
3.165000	1.535267
3.166000	1.547185
3.167000	1.559746
3.168000	1.572630
3.169000	1.573274
3.170000	1.572952
3.171000	1.562323
3.172000	1.550406
3.173000	1.541065
3.174000	1.526893
3.175000	1.523672
3.176000	1.523994
3.177000	1.526571
3.178000	1.533012
3.179000	1.533979
3.180000	1.542353
3.181000	1.552660
3.182000	1.561035
3.183000	1.571342
3.184000	1.586802
3.185000	1.591956
3.186000	1.584548
3.187000	1.584548
3.188000	1.566832
3.189000	1.550083
3.190000	1.532368
3.191000	1.534623
3.192000	1.527859
3.193000	1.518518
3.194000	1.517230
3.195000	1.517874
3.196000	1.525926
3.197000	1.534945
3.198000	1.535911
3.199000	1.540743
3.200000	1.552660
3.201000	1.560390
3.202000	1.568121
3.203000	1.569087
3.204000	1.573918
3.205000	1.557169
3.206000	1.548795
3.207000	1.551050
3.208000	1.549117
3.209000	1.549439
3.210000	1.550083
3.211000	1.555237
3.212000	1.553949
3.213000	1.555559
3.214000	1.561035
3.215000	1.558780
3.216000	1.565544
3.217000	1.574885
3.218000	1.580360
3.219000	1.583903
3.220000	1.586480
3.221000	1.581327
3.222000	1.567477
3.223000	1.554915
3.224000	1.544286
3.225000	1.540098
3.226000	1.543319
3.227000	1.541387
3.228000	1.542353
3.229000	1.533012
3.230000	1.543642
3.231000	1.545574
3.232000	1.545896
3.233000	1.544608
3.234000	1.537844
3.235000	1.550728
3.236000	1.549117
3.237000	1.551694
3.238000	1.547507
3.239000	1.537844
3.240000	1.533012
3.241000	1.524638
3.242000	1.517874
3.243000	1.513687
3.244000	1.516263
3.245000	1.520451
3.246000	1.531402
3.247000	1.539776
3.248000	1.542031
3.249000	1.555559
3.250000	1.562645
3.251000	1.568765
3.252000	1.575529
3.253000	1.570053
3.254000	1.566832
3.255000	1.553626
3.256000	1.535267
3.257000	1.532690
3.258000	1.517230
3.259000	1.500159
3.260000	1.498870
3.261000	1.499192
3.262000	1.496616
3.263000	1.503058
3.264000	1.513043
3.265000	1.529147
3.266000	1.545574
3.267000	1.562323
3.268000	1.575851
3.269000	1.592600
3.270000	1.588735
3.271000	1.582293
3.272000	1.569731
3.273000	1.557169
3.274000	1.555559
3.275000	1.550406
3.276000	1.554593
3.277000	1.548151
3.278000	1.560390
3.279000	1.558136
3.280000	1.551372
3.281000	1.562323
3.282000	1.561357
3.283000	1.575207
3.284000	1.586480
3.285000	1.593566
3.286000	1.591312
3.287000	1.585836
3.288000	1.567477
3.289000	1.562645
3.290000	1.550728
3.291000	1.530758
3.292000	1.516908
3.293000	1.513043
3.294000	1.506601
3.295000	1.509822
3.296000	1.507567
3.297000	1.520129
3.298000	1.531724
3.299000	1.537844
3.300000	1.558136
3.301000	1.567799
3.302000	1.574563
3.303000	1.564900
3.304000	1.568121
3.305000	1.553304
3.306000	1.539776
3.307000	1.528503
3.308000	1.517230
3.309000	1.509499
3.310000	1.514009
3.311000	1.509177
3.312000	1.518518
3.313000	1.532368
3.314000	1.538488
3.315000	1.549761
3.316000	1.558780
3.317000	1.569087
3.318000	1.580038
3.319000	1.578428
3.320000	1.582615
3.321000	1.566832
3.322000	1.546218
3.323000	1.542675
3.324000	1.529469
3.325000	1.524316
3.326000	1.520773
3.327000	1.522061
3.328000	1.525604
3.329000	1.523027
3.330000	1.533657
3.331000	1.550406
3.332000	1.571342
3.333000	1.587446
3.334000	1.598075
3.335000	1.594532
3.336000	1.598075
3.337000	1.594210
3.338000	1.578750
3.339000	1.563289
3.340000	1.546540
3.341000	1.537844
3.342000	1.525604
3.343000	1.522705
3.344000	1.516586
3.345000	1.520129
3.346000	1.527859
3.347000	1.536233
3.348000	1.556203
3.349000	1.553304
3.350000	1.574885
3.351000	1.591634
3.352000	1.583903
3.353000	1.570053
3.354000	1.549117
3.355000	1.533657
3.356000	1.507889
3.357000	1.506279
3.358000	1.507245
3.359000	1.501769
3.360000	1.500803
3.361000	1.517874
3.362000	1.532368
3.363000	1.542675
3.364000	1.552660
3.365000	1.563611
3.366000	1.576817
3.367000	1.587446
3.368000	1.577139
3.369000	1.576173
3.370000	1.560390
3.371000	1.545896
3.372000	1.526571
3.373000	1.510466
3.374000	1.502736
3.375000	1.501125
3.376000	1.503058
3.377000	1.521417
3.378000	1.531402
3.379000	1.549117
3.380000	1.557814
3.381000	1.567154
3.382000	1.580360
3.383000	1.593566
3.384000	1.602907
3.385000	1.612892
3.386000	1.613536
3.387000	1.603229
3.388000	1.587768
3.389000	1.566832
3.390000	1.560713
3.391000	1.543964
3.392000	1.539132
3.393000	1.536233
3.394000	1.534301
3.395000	1.533657
3.396000	1.537844
3.397000	1.542675
3.398000	1.551050
3.399000	1.556203
3.400000	1.574885
3.401000	1.587446
3.402000	1.592922
3.403000	1.584870
3.404000	1.582615
3.405000	1.575851
3.406000	1.562323
3.407000	1.551050
3.408000	1.539132
3.409000	1.525604
3.410000	1.520129
3.411000	1.513687
3.412000	1.523027
3.413000	1.525604
3.414000	1.540098
3.415000	1.552982
3.416000	1.562001
3.417000	1.578106
3.418000	1.585836
3.419000	1.585192
3.420000	1.589057
3.421000	1.570697
3.422000	1.559746
3.423000	1.545574
3.424000	1.536878
3.425000	1.532368
3.426000	1.531402
3.427000	1.524638
3.428000	1.530436
3.429000	1.525604
3.430000	1.526893
3.431000	1.535911
3.432000	1.538810
3.433000	1.563933
3.434000	1.571664
3.435000	1.589057
3.436000	1.598075
3.437000	1.601941
3.438000	1.590989
3.439000	1.581327
3.440000	1.574240
3.441000	1.565866
3.442000	1.557492
3.443000	1.552338
3.444000	1.544608
3.445000	1.546218
3.446000	1.542675
3.447000	1.556525
3.448000	1.553626
3.449000	1.560713
3.450000	1.561679
3.451000	1.564578
3.452000	1.567154
3.453000	1.562001
3.454000	1.555881
3.455000	1.539776
3.456000	1.531402
3.457000	1.520129
3.458000	1.511110
3.459000	1.508533
3.460000	1.512398
3.461000	1.515297
3.462000	1.528181
3.463000	1.531080
3.464000	1.543642
3.465000	1.547185
3.466000	1.562001
3.467000	1.576173
3.468000	1.579072
3.469000	1.579072
3.470000	1.579072
3.471000	1.568765
3.472000	1.547829
3.473000	1.529147
3.474000	1.519484
3.475000	1.515941
3.476000	1.516263
3.477000	1.527215
3.478000	1.525604
3.479000	1.531080
3.480000	1.539454
3.481000	1.546862
3.482000	1.552016
3.483000	1.561035
3.484000	1.567799
3.485000	1.571342
3.486000	1.574885
3.487000	1.567477
3.488000	1.562323
3.489000	1.554915
3.490000	1.552982
3.491000	1.542031
3.492000	1.542031
3.493000	1.534301
3.494000	1.544286
3.495000	1.550728
3.496000	1.553949
3.497000	1.558780
3.498000	1.568121
3.499000	1.570697
3.500000	1.577461
3.501000	1.586802
3.502000	1.588735
3.503000	1.585192
3.504000	1.587124
3.505000	1.570375
3.506000	1.549439
3.507000	1.534623
3.508000	1.530436
3.509000	1.519807
3.510000	1.518196
3.511000	1.515619
3.512000	1.524960
3.513000	1.532690
3.514000	1.536555
3.515000	1.541065
3.516000	1.553304
3.517000	1.563611
3.518000	1.563611
3.519000	1.571020
3.520000	1.562645
3.521000	1.555237
3.522000	1.544930
3.523000	1.540098
3.524000	1.530758
3.525000	1.530114
3.526000	1.526248
3.527000	1.524316
3.528000	1.536233
3.529000	1.523994
3.530000	1.528503
3.531000	1.535589
3.532000	1.545896
3.533000	1.555559
3.534000	1.564256
3.535000	1.574885
3.536000	1.571986
3.537000	1.573596
3.538000	1.553304
3.539000	1.532368
3.540000	1.524638
3.541000	1.523027
3.542000	1.520773
3.543000	1.520773
3.544000	1.523350
3.545000	1.529147
3.546000	1.538166
3.547000	1.548795
3.548000	1.563611
3.549000	1.581004
3.550000	1.596787
3.551000	1.608060
3.552000	1.608705
3.553000	1.610959
3.554000	1.602263
3.555000	1.586158
3.556000	1.571664
3.557000	1.559102
3.558000	1.547829
3.559000	1.533012
3.560000	1.521739
3.561000	1.520773
3.562000	1.519162
3.563000	1.523672
3.564000	1.527537
3.565000	1.538166
3.566000	1.567477
3.567000	1.578750
3.568000	1.572952
3.569000	1.583259
3.570000	1.585514
3.571000	1.579394
3.572000	1.561679
3.573000	1.550406
3.574000	1.544930
3.575000	1.539454
3.576000	1.533334
3.577000	1.535589
3.578000	1.533979
3.579000	1.537844
3.580000	1.546218
3.581000	1.555881
3.582000	1.569087
3.583000	1.582293
3.584000	1.586480
3.585000	1.581327
3.586000	1.574563
3.587000	1.566832
3.588000	1.553626
3.589000	1.540743
3.590000	1.526248
3.591000	1.521095
3.592000	1.516586
3.593000	1.520129
3.594000	1.524638
3.595000	1.529147
3.596000	1.527215
3.597000	1.538166
3.598000	1.550728
3.599000	1.557814
3.600000	1.571664
3.601000	1.580360
3.602000	1.578106
3.603000	1.576173
3.604000	1.570697
3.605000	1.557169
3.606000	1.546540
3.607000	1.540098
3.608000	1.531080
3.609000	1.519807
3.610000	1.511432
3.611000	1.506279
3.612000	1.505634
3.613000	1.504024
3.614000	1.519162
3.615000	1.536878
3.616000	1.560068
3.617000	1.575851
3.618000	1.586802
3.619000	1.590667
3.620000	1.600652
3.621000	1.598398
3.622000	1.592922
3.623000	1.583581
3.624000	1.573596
3.625000	1.560390
3.626000	1.555881
3.627000	1.551372
3.628000	1.547507
3.629000	1.537844
3.630000	1.552338
3.631000	1.565866
3.632000	1.572952
3.633000	1.585192
3.634000	1.599364
3.635000	1.606128
3.636000	1.604195
3.637000	1.607738
3.638000	1.601619
3.639000	1.582615
3.640000	1.556847
3.641000	1.542997
3.642000	1.535589
3.643000	1.530758
3.644000	1.529791
3.645000	1.531724
3.646000	1.541709
3.647000	1.547185
3.648000	1.556203
3.649000	1.562323
3.650000	1.574885
3.651000	1.582937
3.652000	1.583903
3.653000	1.583903
3.654000	1.583903
3.655000	1.573596
3.656000	1.562967
3.657000	1.557169
3.658000	1.554915
3.659000	1.559102
3.660000	1.563611
3.661000	1.568765
3.662000	1.564900
3.663000	1.569409
3.664000	1.562645
3.665000	1.555559
3.666000	1.552660
3.667000	1.548795
3.668000	1.548473
3.669000	1.556847
3.670000	1.556525
3.671000	1.553626
3.672000	1.532368
3.673000	1.526248
3.674000	1.526248
3.675000	1.515941
3.676000	1.508533
3.677000	1.506923
3.678000	1.507567
3.679000	1.511432
3.680000	1.535911
3.681000	1.566188
3.682000	1.583259
3.683000	1.599042
3.684000	1.589379
3.685000	1.570375
3.686000	1.558458
3.687000	1.546540
3.688000	1.531724
3.689000	1.512398
3.690000	1.500481
3.691000	1.493073
3.692000	1.487597
3.693000	1.484376
3.694000	1.494039
3.695000	1.505956
3.696000	1.521095
3.697000	1.546540
3.698000	1.576495
3.699000	1.599686
3.700000	1.620622
3.701000	1.617723
3.702000	1.617401
3.703000	1.602907
3.704000	1.583581
3.705000	1.566188
3.706000	1.553304
3.707000	1.547507
3.708000	1.548473
3.709000	1.552982
3.710000	1.552982
3.711000	1.557169
3.712000	1.564256
3.713000	1.572630
3.714000	1.584548
3.715000	1.590023
3.716000	1.598720
3.717000	1.603873
3.718000	1.607416
3.719000	1.604195
3.720000	1.600330
3.721000	1.581649
3.722000	1.561679
3.723000	1.543319
3.724000	1.526248
3.725000	1.520451
3.726000	1.510144
3.727000	1.502091
3.728000	1.503380
3.729000	1.502413
3.730000	1.512398
3.731000	1.520451
3.732000	1.533979
3.733000	1.540421
3.734000	1.565222
3.735000	1.576173
3.736000	1.578106
3.737000	1.567799
3.738000	1.552016
3.739000	1.539132
3.740000	1.537200
3.741000	1.543642
3.742000	1.549117
3.743000	1.554915
3.744000	1.569087
3.745000	1.568121
3.746000	1.577139
3.747000	1.589701
3.748000	1.595177
3.749000	1.604839
3.750000	1.617723
3.751000	1.628674
3.752000	1.634150
3.753000	1.621588
3.754000	1.609671
3.755000	1.581971
3.756000	1.555559
3.757000	1.536878
3.758000	1.521739
3.759000	1.509499
3.760000	1.504990
3.761000	1.507889
3.762000	1.514009
3.763000	1.515619
3.764000	1.523027
3.765000	1.535911
3.766000	1.542997
3.767000	1.548473
3.768000	1.547507
3.769000	1.545574
3.770000	1.536555
3.771000	1.526248
3.772000	1.510788
3.773000	1.500481
3.774000	1.490174
3.775000	1.482766
3.776000	1.484054
3.777000	1.492106
3.778000	1.501769
3.779000	1.516586
3.780000	1.532046
3.781000	1.557814
3.782000	1.579716
3.783000	1.609671
3.784000	1.630285
3.785000	1.638659
3.786000	1.640914
3.787000	1.622233
3.788000	1.602585
3.789000	1.573918
3.790000	1.568443
3.791000	1.544608
3.792000	1.530758
3.793000	1.525282
3.794000	1.523350
3.795000	1.523350
3.796000	1.524638
3.797000	1.540421
3.798000	1.560068
3.799000	1.572952
3.800000	1.594210
3.801000	1.611281
3.802000	1.622233
3.803000	1.612892
3.804000	1.604517
3.805000	1.586802
3.806000	1.576495
3.807000	1.568443
3.808000	1.556203
3.809000	1.550083
3.810000	1.545896
3.811000	1.545574
3.812000	1.545252
3.813000	1.548795
3.814000	1.556525
3.815000	1.564900
3.816000	1.581004
3.817000	1.586802
3.818000	1.587124
3.819000	1.581327
3.820000	1.585836
3.821000	1.592278
3.822000	1.578428
3.823000	1.564256
3.824000	1.550406
3.825000	1.536233
3.826000	1.526893
3.827000	1.525282
3.828000	1.522061
3.829000	1.520451
3.830000	1.527859
3.831000	1.536555
3.832000	1.551050
3.833000	1.571664
3.834000	1.588091
3.835000	1.596143
3.836000	1.595177
3.837000	1.587768
3.838000	1.572308
3.839000	1.555237
3.840000	1.538810
3.841000	1.522705
3.842000	1.516586
3.843000	1.511432
3.844000	1.518518
3.845000	1.522705
3.846000	1.533334
3.847000	1.546540
3.848000	1.567477
3.849000	1.585836
3.850000	1.599364
3.851000	1.619978
3.852000	1.628030
3.853000	1.624809
3.854000	1.612570
3.855000	1.588735
3.856000	1.575851
3.857000	1.560713
3.858000	1.551694
3.859000	1.546862
3.860000	1.532690
3.861000	1.529147
3.862000	1.523350
3.863000	1.523672
3.864000	1.532690
3.865000	1.544286
3.866000	1.561035
3.867000	1.575851
3.868000	1.581971
3.869000	1.583903
3.870000	1.587768
3.871000	1.581004
3.872000	1.560713
3.873000	1.544930
3.874000	1.539132
3.875000	1.532046
3.876000	1.541065
3.877000	1.553626
3.878000	1.564578
3.879000	1.566832
3.880000	1.566510
3.881000	1.570053
3.882000	1.572630
3.883000	1.585192
3.884000	1.590667
3.885000	1.590023
3.886000	1.586802
3.887000	1.569409
3.888000	1.550728
3.889000	1.535911
3.890000	1.526893
3.891000	1.503702
3.892000	1.495972
3.893000	1.491462
3.894000	1.493073
3.895000	1.500803
3.896000	1.504990
3.897000	1.518840
3.898000	1.544608
3.899000	1.580682
3.900000	1.605162
3.901000	1.623521
3.902000	1.618367
3.903000	1.601619
3.904000	1.588735
3.905000	1.556847
3.906000	1.539776
3.907000	1.534301
3.908000	1.531402
3.909000	1.533657
3.910000	1.536555
3.911000	1.539776
3.912000	1.545252
3.913000	1.565222
3.914000	1.570375
3.915000	1.580360
3.916000	1.603551
3.917000	1.613536
3.918000	1.622233
3.919000	1.619656
3.920000	1.619656
3.921000	1.606128
3.922000	1.585192
3.923000	1.566188
3.924000	1.550406
3.925000	1.538810
3.926000	1.537522
3.927000	1.540098
3.928000	1.539132
3.929000	1.545252
3.930000	1.555237
3.931000	1.562001
3.932000	1.567477
3.933000	1.576173
3.934000	1.588091
3.935000	1.591634
3.936000	1.589057
3.937000	1.572952
3.938000	1.555559
3.939000	1.538810
3.940000	1.533334
3.941000	1.528503
3.942000	1.528181
3.943000	1.525926
3.944000	1.525604
3.945000	1.527859
3.946000	1.537844
3.947000	1.552660
3.948000	1.555881
3.949000	1.559424
3.950000	1.562967
3.951000	1.562967
3.952000	1.562645
3.953000	1.556203
3.954000	1.552660
3.955000	1.544930
3.956000	1.532046
3.957000	1.515619
3.958000	1.497904
3.959000	1.483088
3.960000	1.487597
3.961000	1.496938
3.962000	1.518840
3.963000	1.544608
3.964000	1.568765
3.965000	1.586158
3.966000	1.606772
3.967000	1.624165
3.968000	1.648966
3.969000	1.656375
3.970000	1.658629
3.971000	1.638659
3.972000	1.615147
3.973000	1.598398
3.974000	1.578106
3.975000	1.546540
3.976000	1.520129
3.977000	1.506279
3.978000	1.509499
3.979000	1.520773
3.980000	1.522061
3.981000	1.536878
3.982000	1.559102
3.983000	1.582937
3.984000	1.606128
3.985000	1.610315
3.986000	1.608705
3.987000	1.611926
3.988000	1.604839
3.989000	1.590989
3.990000	1.580682
3.991000	1.566832
3.992000	1.556525
3.993000	1.545252
3.994000	1.544286
3.995000	1.544608
3.996000	1.545252
3.997000	1.551694
3.998000	1.569087
3.999000	1.576495
4.000000	1.577139
4.001000	1.578750
4.002000	1.576495
4.003000	1.571342
4.004000	1.572308
4.005000	1.558136
4.006000	1.556203
4.007000	1.551050
4.008000	1.542031
4.009000	1.535267
4.010000	1.537844
4.011000	1.533657
4.012000	1.533012
4.013000	1.538166
4.014000	1.543964
4.015000	1.541065
4.016000	1.545896
4.017000	1.560068
4.018000	1.575851
4.019000	1.585192
4.020000	1.585514
4.021000	1.576817
4.022000	1.555237
4.023000	1.542675
4.024000	1.534945
4.025000	1.525926
4.026000	1.520129
4.027000	1.520451
4.028000	1.524638
4.029000	1.532690
4.030000	1.543319
4.031000	1.547185
4.032000	1.545252
4.033000	1.549117
4.034000	1.553304
4.035000	1.564256
4.036000	1.571986
4.037000	1.572952
4.038000	1.557814
4.039000	1.547829
4.040000	1.544930
4.041000	1.547185
4.042000	1.551050
4.043000	1.557492
4.044000	1.553304
4.045000	1.546862
4.046000	1.540098
4.047000	1.544930
4.048000	1.553949
4.049000	1.561357
4.050000	1.561035
4.051000	1.559102
4.052000	1.565544
4.053000	1.564256
4.054000	1.572952
4.055000	1.568765
4.056000	1.550083
4.057000	1.532690
4.058000	1.512076
4.059000	1.512076
4.060000	1.530114
4.061000	1.552016
4.062000	1.567799
4.063000	1.589057
4.064000	1.614824
4.065000	1.633506
4.066000	1.644779
4.067000	1.640592
4.068000	1.636727
4.069000	1.624809
4.070000	1.625776
4.071000	1.603229
4.072000	1.580682
4.073000	1.557492
4.074000	1.533979
4.075000	1.513043
4.076000	1.500159
4.077000	1.498548
4.078000	1.505312
4.079000	1.518196
4.080000	1.527537
4.081000	1.543964
4.082000	1.556525
4.083000	1.575851
4.084000	1.590667
4.085000	1.599364
4.086000	1.603551
4.087000	1.603229
4.088000	1.583259
4.089000	1.560390
4.090000	1.547507
4.091000	1.532368
4.092000	1.524316
4.093000	1.534623
4.094000	1.539776
4.095000	1.547185
4.096000	1.563933
4.097000	1.571986
4.098000	1.581649
4.099000	1.591312
4.100000	1.605162
4.101000	1.607416
4.102000	1.601619
4.103000	1.592278
4.104000	1.581971
4.105000	1.559102
4.106000	1.537522
4.107000	1.513687
4.108000	1.495649
4.109000	1.479545
4.110000	1.477934
4.111000	1.476646
4.112000	1.484376
4.113000	1.497260
4.114000	1.514009
4.115000	1.541065
4.116000	1.567799
4.117000	1.587446
4.118000	1.603873
4.119000	1.598720
4.120000	1.603873
4.121000	1.602585
4.122000	1.592600
4.123000	1.579394
4.124000	1.562645
4.125000	1.548151
4.126000	1.534301
4.127000	1.521739
4.128000	1.513365
4.129000	1.509177
4.130000	1.509499
4.131000	1.508211
4.132000	1.499192
4.133000	1.500159
4.134000	1.502413
4.135000	1.501125
4.136000	1.497260
4.137000	1.503702
4.138000	1.486631
4.139000	1.467627
4.140000	1.469882
4.141000	1.474069
4.142000	1.484698
4.143000	1.504346
4.144000	1.521739
4.145000	1.542675
4.146000	1.573596
4.147000	1.605484
4.148000	1.632862
4.149000	1.653154
4.150000	1.670869
4.151000	1.681176
4.152000	1.677955
4.153000	1.666037
4.154000	1.656375
4.155000	1.630285
4.156000	1.613858
4.157000	1.590667
4.158000	1.579072
4.159000	1.559102
4.160000	1.552660
4.161000	1.548473
4.162000	1.547185
4.163000	1.546862
4.164000	1.554271
4.165000	1.557492
4.166000	1.577784
4.167000	1.587124
4.168000	1.591634
4.169000	1.599364
4.170000	1.606772
4.171000	1.602585
4.172000	1.587124
4.173000	1.574563
4.174000	1.564900
4.175000	1.554593
4.176000	1.549439
4.177000	1.544930
4.178000	1.544608
4.179000	1.535267
4.180000	1.530114
4.181000	1.520129
4.182000	1.516263
4.183000	1.515619
4.184000	1.527859
4.185000	1.549439
4.186000	1.562645
4.187000	1.570053
4.188000	1.567799
4.189000	1.562323
4.190000	1.557492
4.191000	1.547185
4.192000	1.531724
4.193000	1.517230
4.194000	1.520451
4.195000	1.521417
4.196000	1.533657
4.197000	1.548473
4.198000	1.547829
4.199000	1.553949
4.200000	1.567477
4.201000	1.580360
4.202000	1.571664
4.203000	1.567799
4.204000	1.551372
4.205000	1.523350
4.206000	1.501447
4.207000	1.487597
4.208000	1.476646
4.209000	1.481799
4.210000	1.503380
4.211000	1.521417
4.212000	1.533657
4.213000	1.554271
4.214000	1.582937
4.215000	1.599364
4.216000	1.617723
4.217000	1.623843
4.218000	1.626742
4.219000	1.621588
4.220000	1.633506
4.221000	1.601296
4.222000	1.563933
4.223000	1.538488
4.224000	1.522383
4.225000	1.512720
4.226000	1.521095
4.227000	1.511110
4.228000	1.513365
4.229000	1.516263
4.230000	1.525926
4.231000	1.539776
4.232000	1.570053
4.233000	1.601296
4.234000	1.613214
4.235000	1.611926
4.236000	1.598720
4.237000	1.598398
4.238000	1.582937
4.239000	1.568121
4.240000	1.542353
4.241000	1.527215
4.242000	1.525926
4.243000	1.525926
4.244000	1.543642
4.245000	1.559746
4.246000	1.591634
4.247000	1.624809
4.248000	1.642847
4.249000	1.670547
4.250000	1.695348
4.251000	1.692127
4.252000	1.667004
4.253000	1.627708
4.254000	1.592922
4.255000	1.554593
4.256000	1.523994
4.257000	1.515619
4.258000	1.511110
4.259000	1.515941
4.260000	1.515297
4.261000	1.500481
4.262000	1.499192
4.263000	1.511754
4.264000	1.527215
4.265000	1.533657
4.266000	1.545896
4.267000	1.568443
4.268000	1.588413
4.269000	1.597753
4.270000	1.590345
4.271000	1.581004
4.272000	1.560390
4.273000	1.555559
4.274000	1.562323
4.275000	1.553304
4.276000	1.554593
4.277000	1.561357
4.278000	1.562967
4.279000	1.556525
4.280000	1.546540
4.281000	1.530114
4.282000	1.522383
4.283000	1.521417
4.284000	1.543642
4.285000	1.561357
4.286000	1.583259
4.287000	1.602585
4.288000	1.593888
4.289000	1.576495
4.290000	1.568443
4.291000	1.551050
4.292000	1.539454
4.293000	1.538810
4.294000	1.535911
4.295000	1.545574
4.296000	1.556203
4.297000	1.565222
4.298000	1.569409
4.299000	1.579716
4.300000	1.590989
4.301000	1.601296
4.302000	1.604517
4.303000	1.603873
4.304000	1.603551
4.305000	1.601619
4.306000	1.601941
4.307000	1.593244
4.308000	1.586480
4.309000	1.585836
4.310000	1.587124
4.311000	1.572630
4.312000	1.558780
4.313000	1.553304
4.314000	1.542675
4.315000	1.533012
4.316000	1.534623
4.317000	1.540421
4.318000	1.535589
4.319000	1.530758
4.320000	1.522061
4.321000	1.526893
4.322000	1.533979
4.323000	1.538488
4.324000	1.529791
4.325000	1.518518
4.326000	1.504024
4.327000	1.504990
4.328000	1.517552
4.329000	1.531402
4.330000	1.541387
4.331000	1.555237
4.332000	1.574885
4.333000	1.599686
4.334000	1.618367
4.335000	1.640914
4.336000	1.651865
4.337000	1.653154
4.338000	1.643491
4.339000	1.623843
4.340000	1.607094
4.341000	1.582937
4.342000	1.560068
4.343000	1.542031
4.344000	1.527859
4.345000	1.510144
4.346000	1.508211
4.347000	1.507889
4.348000	1.521095
4.349000	1.534623
4.350000	1.562323
4.351000	1.596787
4.352000	1.587446
4.353000	1.577139
4.354000	1.571020
4.355000	1.558136
4.356000	1.549439
4.357000	1.542353
4.358000	1.546540
4.359000	1.557492
4.360000	1.560713
4.361000	1.562967
4.362000	1.564256
4.363000	1.571664
4.364000	1.571342
4.365000	1.557492
4.366000	1.553304
4.367000	1.552982
4.368000	1.554593
4.369000	1.563933
4.370000	1.564900
4.371000	1.561679
4.372000	1.554271
4.373000	1.547829
4.374000	1.543964
4.375000	1.544286
4.376000	1.549761
4.377000	1.557169
4.378000	1.556203
4.379000	1.554271
4.380000	1.552338
4.381000	1.545252
4.382000	1.531724
4.383000	1.538488
4.384000	1.539132
4.385000	1.549439
4.386000	1.552338
4.387000	1.551372
4.388000	1.546862
4.389000	1.542675
4.390000	1.529147
4.391000	1.523027
4.392000	1.528181
4.393000	1.528181
4.394000	1.533979
4.395000	1.548795
4.396000	1.559102
4.397000	1.568765
4.398000	1.586480
4.399000	1.598398
4.400000	1.602263
4.401000	1.593566
4.402000	1.573274
4.403000	1.559102
4.404000	1.541709
4.405000	1.523672
4.406000	1.505312
4.407000	1.500481
4.408000	1.505634
4.409000	1.513687
4.410000	1.525926
4.411000	1.538166
4.412000	1.551372
4.413000	1.576817
4.414000	1.598398
4.415000	1.615147
4.416000	1.634472
4.417000	1.667326
4.418000	1.685041
4.419000	1.691161
4.420000	1.691483
4.421000	1.669258
4.422000	1.627708
4.423000	1.596143
4.424000	1.593888
4.425000	1.598398
4.426000	1.595821
4.427000	1.594532
4.428000	1.591312
4.429000	1.576817
4.430000	1.564578
4.431000	1.553304
4.432000	1.539454
4.433000	1.528503
4.434000	1.547829
4.435000	1.569409
4.436000	1.583903
4.437000	1.587446
4.438000	1.577139
4.439000	1.551050
4.440000	1.537522
4.441000	1.552982
4.442000	1.572630
4.443000	1.585514
4.444000	1.597431
4.445000	1.589701
4.446000	1.575529
4.447000	1.565222
4.448000	1.556847
4.449000	1.548795
4.450000	1.535589
4.451000	1.521417
4.452000	1.506601
4.453000	1.498226
4.454000	1.493717
4.455000	1.482766
4.456000	1.468593
4.457000	1.461507
4.458000	1.461185
4.459000	1.462474
4.460000	1.471170
4.461000	1.489208
4.462000	1.506279
4.463000	1.523672
4.464000	1.534945
4.465000	1.545252
4.466000	1.558458
4.467000	1.566832
4.468000	1.579716
4.469000	1.585514
4.470000	1.589057
4.471000	1.582937
4.472000	1.568121
4.473000	1.567154
4.474000	1.552982
4.475000	1.539132
4.476000	1.522061
4.477000	1.507567
4.478000	1.507889
4.479000	1.522705
4.480000	1.544608
4.481000	1.567477
4.482000	1.578750
4.483000	1.596787
4.484000	1.601296
4.485000	1.609027
4.486000	1.612892
4.487000	1.609349
4.488000	1.593888
4.489000	1.575529
4.490000	1.563289
4.491000	1.557814
4.492000	1.551372
4.493000	1.540743
4.494000	1.536233
4.495000	1.542031
4.496000	1.562001
4.497000	1.575207
4.498000	1.573918
4.499000	1.580360
4.500000	1.590989
4.501000	1.603551
4.502000	1.607094
4.503000	1.600008
4.504000	1.589379
4.505000	1.566832
4.506000	1.540743
4.507000	1.536233
4.508000	1.520773
4.509000	1.504668
4.510000	1.502736
4.511000	1.515297
4.512000	1.537200
4.513000	1.568765
4.514000	1.610315
4.515000	1.638659
4.516000	1.658307
4.517000	1.667326
4.518000	1.660562
4.519000	1.641236
4.520000	1.622555
4.521000	1.602585
4.522000	1.560068
4.523000	1.526248
4.524000	1.500803
4.525000	1.472137
4.526000	1.449912
4.527000	1.461830
4.528000	1.476646
4.529000	1.493717
4.530000	1.527859
4.531000	1.548795
4.532000	1.563289
4.533000	1.586480
4.534000	1.594855
4.535000	1.607094
4.536000	1.618690
4.537000	1.622877
4.538000	1.607094
4.539000	1.593244
4.540000	1.581649
4.541000	1.566832
4.542000	1.558458
4.543000	1.546862
4.544000	1.541065
4.545000	1.532046
4.546000	1.524638
4.547000	1.523027
4.548000	1.535267
4.549000	1.542997
4.550000	1.536555
4.551000	1.544286
4.552000	1.529469
4.553000	1.531724
4.554000	1.531402
4.555000	1.521095
4.556000	1.511110
4.557000	1.511110
4.558000	1.513365
4.559000	1.527859
4.560000	1.544286
4.561000	1.554915
4.562000	1.563611
4.563000	1.586802
4.564000	1.615791
4.565000	1.645745
4.566000	1.662816
4.567000	1.676989
4.568000	1.677311
4.569000	1.661206
4.570000	1.635116
4.571000	1.603229
4.572000	1.575207
4.573000	1.560068
4.574000	1.564578
4.575000	1.560068
4.576000	1.573274
4.577000	1.576817
4.578000	1.558136
4.579000	1.532690
4.580000	1.516908
4.581000	1.501769
4.582000	1.488241
4.583000	1.483410
4.584000	1.485665
4.585000	1.494683
4.586000	1.498870
4.587000	1.502736
4.588000	1.514331
4.589000	1.522383
4.590000	1.524638
4.591000	1.519807
4.592000	1.514653
4.593000	1.517230
4.594000	1.516586
4.595000	1.513365
4.596000	1.531080
4.597000	1.556847
4.598000	1.578750
4.599000	1.590667
4.600000	1.595821
4.601000	1.590345
4.602000	1.580360
4.603000	1.564578
4.604000	1.550728
4.605000	1.522705
4.606000	1.509822
4.607000	1.510788
4.608000	1.517874
4.609000	1.516908
4.610000	1.522705
4.611000	1.522705
4.612000	1.533657
4.613000	1.542031
4.614000	1.547829
4.615000	1.559102
4.616000	1.575207
4.617000	1.596787
4.618000	1.619656
4.619000	1.622555
4.620000	1.627064
4.621000	1.615469
4.622000	1.603229
4.623000	1.589057
4.624000	1.577784
4.625000	1.572308
4.626000	1.575851
4.627000	1.580360
4.628000	1.574240
4.629000	1.557814
4.630000	1.546540
4.631000	1.539132
4.632000	1.545252
4.633000	1.549439
4.634000	1.555881
4.635000	1.563611
4.636000	1.574240
4.637000	1.581327
4.638000	1.563289
4.639000	1.563933
4.640000	1.556847
4.641000	1.553949
4.642000	1.552016
4.643000	1.558136
4.644000	1.573918
4.645000	1.569731
4.646000	1.559746
4.647000	1.555881
4.648000	1.567154
4.649000	1.585836
4.650000	1.598398
4.651000	1.600008
4.652000	1.596143
4.653000	1.605484
4.654000	1.611926
4.655000	1.601296
4.656000	1.588413
4.657000	1.569409
4.658000	1.559746
4.659000	1.570697
4.660000	1.601941
4.661000	1.619012
4.662000	1.658307
4.663000	1.714352
4.664000	1.740119
4.665000	1.742052
4.666000	1.715318
4.667000	1.672157
4.668000	1.624165
4.669000	1.578106
4.670000	1.523027
4.671000	1.482766
4.672000	1.447979
4.673000	1.436706
4.674000	1.423822
4.675000	1.400632
4.676000	1.379695
4.677000	1.368422
4.678000	1.386459
4.679000	1.415448
4.680000	1.445081
4.681000	1.483732
4.682000	1.512398
4.683000	1.541065
4.684000	1.566510
4.685000	1.596465
4.686000	1.605806
4.687000	1.606128
4.688000	1.607738
4.689000	1.607416
4.690000	1.617401
4.691000	1.609027
4.692000	1.602263
4.693000	1.610959
4.694000	1.600330
4.695000	1.597431
4.696000	1.593244
4.697000	1.595499
4.698000	1.588735
4.699000	1.596787
4.700000	1.598075
4.701000	1.582293
4.702000	1.560713
4.703000	1.539776
4.704000	1.533657
4.705000	1.525604
4.706000	1.514331
4.707000	1.501125
4.708000	1.500481
4.709000	1.504668
4.710000	1.515619
4.711000	1.528181
4.712000	1.531724
4.713000	1.542031
4.714000	1.539454
4.715000	1.539776
4.716000	1.548795
4.717000	1.561679
4.718000	1.575529
4.719000	1.585836
4.720000	1.588091
4.721000	1.573596
4.722000	1.560713
4.723000	1.552982
4.724000	1.555881
4.725000	1.558136
4.726000	1.580038
4.727000	1.612570
4.728000	1.619012
4.729000	1.622555
4.730000	1.608705
4.731000	1.590023
4.732000	1.581004
4.733000	1.572630
4.734000	1.577139
4.735000	1.586802
4.736000	1.595177
4.737000	1.601619
4.738000	1.597431
4.739000	1.579394
4.740000	1.555559
4.741000	1.516263
4.742000	1.488241
4.743000	1.479545
4.744000	1.508533
4.745000	1.529147
4.746000	1.553304
4.747000	1.590667
4.748000	1.608383
4.749000	1.620622
4.750000	1.621910
4.751000	1.628997
4.752000	1.622555
4.753000	1.620300
4.754000	1.597109
4.755000	1.573274
4.756000	1.557492
4.757000	1.534301
4.758000	1.502413
4.759000	1.487597
4.760000	1.475035
4.761000	1.468593
4.762000	1.469882
4.763000	1.483088
4.764000	1.499515
4.765000	1.513365
4.766000	1.522383
4.767000	1.527859
4.768000	1.538166
4.769000	1.535589
4.770000	1.546218
4.771000	1.548151
4.772000	1.561035
4.773000	1.573596
4.774000	1.584870
4.775000	1.585836
4.776000	1.585192
4.777000	1.591312
4.778000	1.588413
4.779000	1.584225
4.780000	1.586480
4.781000	1.588735
4.782000	1.590023
4.783000	1.586158
4.784000	1.583903
4.785000	1.587124
4.786000	1.579072
4.787000	1.572630
4.788000	1.585192
4.789000	1.589379
4.790000	1.597753
4.791000	1.603873
4.792000	1.601619
4.793000	1.601941
4.794000	1.582937
4.795000	1.555881
4.796000	1.540421
4.797000	1.550728
4.798000	1.563611
4.799000	1.593244
4.800000	1.625454
4.801000	1.641236
4.802000	1.636727
4.803000	1.604517
4.804000	1.562645
4.805000	1.532690
4.806000	1.520451
4.807000	1.520129
4.808000	1.520451
4.809000	1.531724
4.810000	1.548795
4.811000	1.546540
4.812000	1.554593
4.813000	1.573918
4.814000	1.577461
4.815000	1.560390
4.816000	1.543319
4.817000	1.541709
4.818000	1.534623
4.819000	1.538488
4.820000	1.549439
4.821000	1.547829
4.822000	1.537844
4.823000	1.527215
4.824000	1.521095
4.825000	1.527859
4.826000	1.530114
4.827000	1.530436
4.828000	1.528503
4.829000	1.531080
4.830000	1.515619
4.831000	1.502413
4.832000	1.504990
4.833000	1.517874
4.834000	1.551372
4.835000	1.581971
4.836000	1.595177
4.837000	1.579716
4.838000	1.549761
4.839000	1.546540
4.840000	1.559746
4.841000	1.561357
4.842000	1.555237
4.843000	1.550406
4.844000	1.545896
4.845000	1.544930
4.846000	1.548473
4.847000	1.561035
4.848000	1.562645
4.849000	1.569087
4.850000	1.583903
4.851000	1.607416
4.852000	1.611926
4.853000	1.609349
4.854000	1.597109
4.855000	1.573596
4.856000	1.548151
4.857000	1.528825
4.858000	1.517552
4.859000	1.504990
4.860000	1.497260
4.861000	1.493073
4.862000	1.487597
4.863000	1.494039
4.864000	1.518196
4.865000	1.548473
4.866000	1.570375
4.867000	1.585836
4.868000	1.609027
4.869000	1.630929
4.870000	1.644457
4.871000	1.647678
4.872000	1.638659
4.873000	1.638337
4.874000	1.638659
4.875000	1.623521
4.876000	1.587446
4.877000	1.553304
4.878000	1.537844
4.879000	1.521739
4.880000	1.512720
4.881000	1.504346
4.882000	1.491140
4.883000	1.499515
4.884000	1.521739
4.885000	1.536233
4.886000	1.544930
4.887000	1.540098
4.888000	1.534945
4.889000	1.520773
4.890000	1.521417
4.891000	1.560713
4.892000	1.597109
4.893000	1.644457
4.894000	1.678921
4.895000	1.721760
4.896000	1.755902
4.897000	1.771362
4.898000	1.758156
4.899000	1.723370
4.900000	1.687618
4.901000	1.633184
4.902000	1.581327
4.903000	1.535589
4.904000	1.493395
4.905000	1.456032
4.906000	1.428976
4.907000	1.402242
4.908000	1.378729
4.909000	1.349741
4.910000	1.350385
4.911000	1.377119
4.912000	1.411905
4.913000	1.447657
4.914000	1.495972
4.915000	1.536878
4.916000	1.563933
4.917000	1.576495
4.918000	1.582615
4.919000	1.581971
4.920000	1.575207
4.921000	1.566188
4.922000	1.557492
4.923000	1.550728
4.924000	1.540421
4.925000	1.533012
4.926000	1.533979
4.927000	1.536555
4.928000	1.538488
4.929000	1.539776
4.930000	1.551372
4.931000	1.570053
4.932000	1.579072
4.933000	1.589379
4.934000	1.594532
4.935000	1.589057
4.936000	1.584548
4.937000	1.571342
4.938000	1.557814
4.939000	1.549439
4.940000	1.539454
4.941000	1.527215
4.942000	1.535911
4.943000	1.563611
4.944000	1.578750
4.945000	1.585192
4.946000	1.585836
4.947000	1.590345
4.948000	1.576495
4.949000	1.571664
4.950000	1.562967
4.951000	1.547185
4.952000	1.546540
4.953000	1.562967
4.954000	1.582615
4.955000	1.593244
4.956000	1.593244
4.957000	1.596787
4.958000	1.595177
4.959000	1.603551
4.960000	1.633506
4.961000	1.662816
4.962000	1.677311
4.963000	1.688906
4.964000	1.663139
4.965000	1.615469
4.966000	1.574885
4.967000	1.546862
4.968000	1.531724
4.969000	1.523672
4.970000	1.542353
4.971000	1.563289
4.972000	1.575207
4.973000	1.567799
4.974000	1.554593
4.975000	1.518840
4.976000	1.494039
4.977000	1.482121
4.978000	1.461507
4.979000	1.453133
4.980000	1.453455
4.981000	1.470848
4.982000	1.504346
4.983000	1.544286
4.984000	1.563289
4.985000	1.586480
4.986000	1.580360
4.987000	1.558458
4.988000	1.536233
4.989000	1.519807
4.990000	1.506923
4.991000	1.508533
4.992000	1.518518
4.993000	1.523994
4.994000	1.527537
4.995000	1.523350
4.996000	1.529791
4.997000	1.526248
4.998000	1.527215
4.999000	1.550728
5.000000	1.577461
5.001000	1.586802
5.002000	1.580682
5.003000	1.568443
5.004000	1.547185
5.005000	1.522383
5.006000	1.515297
5.007000	1.527859
5.008000	1.559424
5.009000	1.581004
5.010000	1.607416
5.011000	1.624165
5.012000	1.621266
5.013000	1.605806
5.014000	1.591956
5.015000	1.580682
5.016000	1.586802
5.017000	1.606450
5.018000	1.618367
5.019000	1.619334
5.020000	1.612892
5.021000	1.582937
5.022000	1.560068
5.023000	1.546540
5.024000	1.550083
5.025000	1.548151
5.026000	1.546862
5.027000	1.529147
5.028000	1.506923
5.029000	1.495649
5.030000	1.493395
5.031000	1.509822
5.032000	1.546218
5.033000	1.593244
5.034000	1.613536
5.035000	1.614824
5.036000	1.616435
5.037000	1.628997
5.038000	1.609349
5.039000	1.569409
5.040000	1.528503
5.041000	1.494683
5.042000	1.479545
5.043000	1.480511
5.044000	1.513043
5.045000	1.550728
5.046000	1.589379
5.047000	1.628352
5.048000	1.656697
5.049000	1.679565
5.050000	1.683108
5.051000	1.651865
5.052000	1.613536
5.053000	1.564578
5.054000	1.531724
5.055000	1.489208
5.056000	1.441860
5.057000	1.408684
5.058000	1.394190
5.059000	1.393868
5.060000	1.427365
5.061000	1.459253
5.062000	1.476002
5.063000	1.501447
5.064000	1.523672
5.065000	1.535589
5.066000	1.560068
5.067000	1.581327
5.068000	1.598075
5.069000	1.607738
5.070000	1.589057
5.071000	1.568443
5.072000	1.541065
5.073000	1.515941
5.074000	1.495005
5.075000	1.489852
5.076000	1.504668
5.077000	1.531724
5.078000	1.557169
5.079000	1.588413
5.080000	1.621266
5.081000	1.665715
5.082000	1.692771
5.083000	1.711453
5.084000	1.709842
5.085000	1.701146
5.086000	1.675700
5.087000	1.645423
5.088000	1.585836
5.089000	1.545896
5.090000	1.521417
5.091000	1.521739
5.092000	1.535589
5.093000	1.544930
5.094000	1.558780
5.095000	1.604517
5.096000	1.635438
5.097000	1.642202
5.098000	1.647356
5.099000	1.647034
5.100000	1.642847
5.101000	1.625131
5.102000	1.596787
5.103000	1.561357
5.104000	1.537522
5.105000	1.513043
5.106000	1.509177
5.107000	1.506923
5.108000	1.498548
5.109000	1.476324
5.110000	1.452167
5.111000	1.453133
5.112000	1.458931
5.113000	1.475035
5.114000	1.494683
5.115000	1.499837
5.116000	1.519484
5.117000	1.555881
5.118000	1.605806
5.119000	1.637693
5.120000	1.658629
5.121000	1.636405
5.122000	1.616435
5.123000	1.596143
5.124000	1.562323
5.125000	1.524960
5.126000	1.483732
5.127000	1.460863
5.128000	1.457964
5.129000	1.476968
5.130000	1.491784
5.131000	1.497260
5.132000	1.515619
5.133000	1.544930
5.134000	1.582293
5.135000	1.598398
5.136000	1.604517
5.137000	1.620944
5.138000	1.630285
5.139000	1.654120
5.140000	1.697925
5.141000	1.725625
5.142000	1.733033
5.143000	1.727235
5.144000	1.706621
5.145000	1.677633
5.146000	1.634472
5.147000	1.588413
5.148000	1.549439
5.149000	1.501447
5.150000	1.469882
5.151000	1.450878
5.152000	1.440571
5.153000	1.419313
5.154000	1.410616
5.155000	1.415448
5.156000	1.429620
5.157000	1.437672
5.158000	1.449912
5.159000	1.451200
5.160000	1.460863
5.161000	1.489852
5.162000	1.526248
5.163000	1.568121
5.164000	1.606450
5.165000	1.628030
5.166000	1.631251
5.167000	1.628030
5.168000	1.611603
5.169000	1.599364
5.170000	1.549761
5.171000	1.507567
5.172000	1.476324
5.173000	1.462474
5.174000	1.472137
5.175000	1.487919
5.176000	1.505312
5.177000	1.529791
5.178000	1.552982
5.179000	1.563611
5.180000	1.570697
5.181000	1.566188
5.182000	1.571020
5.183000	1.575529
5.184000	1.572308
5.185000	1.566510
5.186000	1.571986
5.187000	1.581004
5.188000	1.555559
5.189000	1.523994
5.190000	1.529791
5.191000	1.531402
5.192000	1.543319
5.193000	1.542997
5.194000	1.548151
5.195000	1.547507
5.196000	1.552338
5.197000	1.565544
5.198000	1.579072
5.199000	1.610637
5.200000	1.620300
5.201000	1.622555
5.202000	1.614502
5.203000	1.596787
5.204000	1.579716
5.205000	1.548151
5.206000	1.516263
5.207000	1.493395
5.208000	1.486953
5.209000	1.495972
5.210000	1.514975
5.211000	1.537200
5.212000	1.570053
5.213000	1.616435
5.214000	1.699535
5.215000	1.782636
5.216000	1.819999
5.217000	1.833849
5.218000	1.828051
5.219000	1.780703
5.220000	1.722404
5.221000	1.650899
5.222000	1.579716
5.223000	1.522705
5.224000	1.464728
5.225000	1.413515
5.226000	1.365201
5.227000	1.335246
5.228000	1.341044
5.229000	1.371321
5.230000	1.398377
5.231000	1.431231
5.232000	1.466983
5.233000	1.502091
5.234000	1.527215
5.235000	1.554915
5.236000	1.595499
5.237000	1.623521
5.238000	1.638337
5.239000	1.638337
5.240000	1.627386
5.241000	1.656697
5.242000	1.697603
5.243000	1.730456
5.244000	1.743662
5.245000	1.734644
5.246000	1.706621
5.247000	1.656375
5.248000	1.592922
5.249000	1.552338
5.250000	1.515941
5.251000	1.486631
5.252000	1.457964
5.253000	1.427043
5.254000	1.407396
5.255000	1.403208
5.256000	1.408040
5.257000	1.421568
5.258000	1.446691
5.259000	1.443792
5.260000	1.454743
5.261000	1.470848
5.262000	1.482766
5.263000	1.493717
5.264000	1.509499
5.265000	1.521417
5.266000	1.528181
5.267000	1.545896
5.268000	1.558136
5.269000	1.571986
5.270000	1.576173
5.271000	1.570375
5.272000	1.584870
5.273000	1.622877
5.274000	1.647356
5.275000	1.670225
5.276000	1.670547
5.277000	1.669903
5.278000	1.659918
5.279000	1.635438
5.280000	1.622233
5.281000	1.633506
5.282000	1.665071
5.283000	1.673124
5.284000	1.669258
5.285000	1.643169
5.286000	1.583581
5.287000	1.541387
5.288000	1.499837
5.289000	1.470204
5.290000	1.451200
5.291000	1.430586
5.292000	1.439927
5.293000	1.468593
5.294000	1.477612
5.295000	1.475035
5.296000	1.478578
5.297000	1.507245
5.298000	1.538810
5.299000	1.575851
5.300000	1.616113
5.301000	1.638659
5.302000	1.634150
5.303000	1.615469
5.304000	1.580038
5.305000	1.542997
5.306000	1.503702
5.307000	1.474391
5.308000	1.464406
5.309000	1.465373
5.310000	1.493073
5.311000	1.516908
5.312000	1.533657
5.313000	1.542353
5.314000	1.550083
5.315000	1.562645
5.316000	1.576817
5.317000	1.590023
5.318000	1.603551
5.319000	1.625131
5.320000	1.636405
5.321000	1.643813
5.322000	1.656697
5.323000	1.662494
5.324000	1.652509
5.325000	1.628030
5.326000	1.604839
5.327000	1.602263
5.328000	1.586802
5.329000	1.569731
5.330000	1.556203
5.331000	1.544608
5.332000	1.551050
5.333000	1.546540
5.334000	1.534623
5.335000	1.538488
5.336000	1.547185
5.337000	1.548473
5.338000	1.528503
5.339000	1.523672
5.340000	1.534945
5.341000	1.527215
5.342000	1.516263
5.343000	1.515619
5.344000	1.516908
5.345000	1.499837
5.346000	1.493073
5.347000	1.479545
5.348000	1.470526
5.349000	1.489208
5.350000	1.537522
5.351000	1.599042
5.352000	1.650577
5.353000	1.689228
5.354000	1.699535
5.355000	1.685685
5.356000	1.659918
5.357000	1.614180
5.358000	1.584870
5.359000	1.544608
5.360000	1.518196
5.361000	1.469882
5.362000	1.440571
5.363000	1.436384
5.364000	1.452167
5.365000	1.470204
5.366000	1.500481
5.367000	1.544930
5.368000	1.583903
5.369000	1.586802
5.370000	1.593566
5.371000	1.582937
5.372000	1.563933
5.373000	1.543642
5.374000	1.550728
5.375000	1.568443
5.376000	1.568765
5.377000	1.580682
5.378000	1.588091
5.379000	1.592922
5.380000	1.610637
5.381000	1.617401
5.382000	1.614824
5.383000	1.619978
5.384000	1.594855
5.385000	1.572630
5.386000	1.547507
5.387000	1.514331
5.388000	1.488241
5.389000	1.475035
5.390000	1.496616
5.391000	1.535589
5.392000	1.533979
5.393000	1.534301
5.394000	1.531724
5.395000	1.514009
5.396000	1.525604
5.397000	1.526248
5.398000	1.513687
5.399000	1.528825
5.400000	1.543964
5.401000	1.566832
5.402000	1.617723
5.403000	1.687940
5.404000	1.723692
5.405000	1.738187
5.406000	1.748494
5.407000	1.724659
5.408000	1.679888
5.409000	1.644457
5.410000	1.608383
5.411000	1.570697
5.412000	1.518196
5.413000	1.486309
5.414000	1.438961
5.415000	1.401920
5.416000	1.400954
5.417000	1.433807
5.418000	1.455066
5.419000	1.458286
5.420000	1.466661
5.421000	1.461185
5.422000	1.460863
5.423000	1.463762
5.424000	1.466661
5.425000	1.475035
5.426000	1.484054
5.427000	1.483732
5.428000	1.496294
5.429000	1.508855
5.430000	1.528503
5.431000	1.538166
5.432000	1.540421
5.433000	1.552338
5.434000	1.579072
5.435000	1.601941
5.436000	1.630607
5.437000	1.672479
5.438000	1.676667
5.439000	1.669580
5.440000	1.669580
5.441000	1.664105
5.442000	1.636405
5.443000	1.618045
5.444000	1.600974
5.445000	1.567154
5.446000	1.530758
5.447000	1.523027
5.448000	1.522061
5.449000	1.538810
5.450000	1.562323
5.451000	1.591956
5.452000	1.643491
5.453000	1.669258
5.454000	1.667970
5.455000	1.651221
5.456000	1.649933
5.457000	1.621588
5.458000	1.579394
5.459000	1.541709
5.460000	1.497904
5.461000	1.461507
5.462000	1.439283
5.463000	1.425433
5.464000	1.422856
5.465000	1.422856
5.466000	1.456032
5.467000	1.472137
5.468000	1.497582
5.469000	1.516586
5.470000	1.539132
5.471000	1.544930
5.472000	1.545896
5.473000	1.538166
5.474000	1.521095
5.475000	1.518196
5.476000	1.523672
5.477000	1.532690
5.478000	1.537200
5.479000	1.559746
5.480000	1.602263
5.481000	1.639948
5.482000	1.654442
5.483000	1.650899
5.484000	1.628030
5.485000	1.613536
5.486000	1.605484
5.487000	1.594210
5.488000	1.567154
5.489000	1.542675
5.490000	1.513365
5.491000	1.472137
5.492000	1.458286
5.493000	1.480511
5.494000	1.493717
5.495000	1.493717
5.496000	1.483088
5.497000	1.497260
5.498000	1.512720
5.499000	1.549439
5.500000	1.569087
5.501000	1.580682
5.502000	1.593244
5.503000	1.599042
5.504000	1.603873
5.505000	1.609027
5.506000	1.616113
5.507000	1.620300
5.508000	1.612570
5.509000	1.602263
5.510000	1.578428
5.511000	1.566188
5.512000	1.565866
5.513000	1.600008
5.514000	1.627708
5.515000	1.632218
5.516000	1.630607
5.517000	1.608060
5.518000	1.594532
5.519000	1.572630
5.520000	1.535589
5.521000	1.487275
5.522000	1.430586
5.523000	1.427365
5.524000	1.448624
5.525000	1.471170
5.526000	1.490174
5.527000	1.505956
5.528000	1.527537
5.529000	1.555237
5.530000	1.582615
5.531000	1.596143
5.532000	1.611603
5.533000	1.631251
5.534000	1.661850
5.535000	1.686329
5.536000	1.701146
5.537000	1.700179
5.538000	1.687940
5.539000	1.671835
5.540000	1.643491
5.541000	1.585836
5.542000	1.521739
5.543000	1.475035
5.544000	1.460541
5.545000	1.461185
5.546000	1.455388
5.547000	1.442504
5.548000	1.456676
5.549000	1.489208
5.550000	1.498870
5.551000	1.514009
5.552000	1.525604
5.553000	1.533979
5.554000	1.539454
5.555000	1.546218
5.556000	1.567154
5.557000	1.570053
5.558000	1.598398
5.559000	1.637371
5.560000	1.643491
5.561000	1.622233
5.562000	1.637049
5.563000	1.660562
5.564000	1.675056
5.565000	1.668936
5.566000	1.660562
5.567000	1.625131
5.568000	1.568121
5.569000	1.531402
5.570000	1.497260
5.571000	1.461185
5.572000	1.431553
5.573000	1.400309
5.574000	1.401276
5.575000	1.402242
5.576000	1.410939
5.577000	1.423500
5.578000	1.445725
5.579000	1.468593
5.580000	1.503702
5.581000	1.534623
5.582000	1.567154
5.583000	1.614180
5.584000	1.651221
5.585000	1.654764
5.586000	1.637371
5.587000	1.600330
5.588000	1.548795
5.589000	1.511110
5.590000	1.479867
5.591000	1.476968
5.592000	1.483410
5.593000	1.488563
5.594000	1.502091
5.595000	1.498226
5.596000	1.508533
5.597000	1.533657
5.598000	1.560713
5.599000	1.572308
5.600000	1.588091
5.601000	1.620300
5.602000	1.642202
5.603000	1.657985
5.604000	1.658951
5.605000	1.637049
5.606000	1.619656
5.607000	1.602907
5.608000	1.592922
5.609000	1.577139
5.610000	1.538810
5.611000	1.514653
5.612000	1.532368
5.613000	1.562323
5.614000	1.587124
5.615000	1.595177
5.616000	1.597109
5.617000	1.582937
5.618000	1.546540
5.619000	1.520451
5.620000	1.484054
5.621000	1.449590
5.622000	1.431231
5.623000	1.434774
5.624000	1.461185
5.625000	1.498226
5.626000	1.540098
5.627000	1.565222
5.628000	1.593566
5.629000	1.611926
5.630000	1.618045
5.631000	1.617723
5.632000	1.613214
5.633000	1.589701
5.634000	1.543964
5.635000	1.517874
5.636000	1.514331
5.637000	1.512398
5.638000	1.501769
5.639000	1.505956
5.640000	1.535911
5.641000	1.564578
5.642000	1.574885
5.643000	1.586480
5.644000	1.601619
5.645000	1.621588
5.646000	1.649289
5.647000	1.661206
5.648000	1.664105
5.649000	1.650255
5.650000	1.628030
5.651000	1.599364
5.652000	1.584225
5.653000	1.570697
5.654000	1.546540
5.655000	1.529791
5.656000	1.543642
5.657000	1.515941
5.658000	1.478901
5.659000	1.457964
5.660000	1.445725
5.661000	1.451522
5.662000	1.465373
5.663000	1.473747
5.664000	1.492106
5.665000	1.567477
5.666000	1.654764
5.667000	1.718861
5.668000	1.736576
5.669000	1.702756
5.670000	1.641880
5.671000	1.572952
5.672000	1.529147
5.673000	1.489208
5.674000	1.458609
5.675000	1.442504
5.676000	1.446369
5.677000	1.440893
5.678000	1.433485
5.679000	1.425433
5.680000	1.451200
5.681000	1.470526
5.682000	1.513687
5.683000	1.572630
5.684000	1.616435
5.685000	1.661528
5.686000	1.687940
5.687000	1.706943
5.688000	1.694382
5.689000	1.660240
5.690000	1.622555
5.691000	1.583903
5.692000	1.550728
5.693000	1.511432
5.694000	1.472459
5.695000	1.429942
5.696000	1.418347
5.697000	1.421246
5.698000	1.466339
5.699000	1.518840
5.700000	1.559424
5.701000	1.580682
5.702000	1.592278
5.703000	1.600008
5.704000	1.606450
5.705000	1.617079
5.706000	1.619656
5.707000	1.616435
5.708000	1.598398
5.709000	1.572308
5.710000	1.546218
5.711000	1.529791
5.712000	1.554915
5.713000	1.587768
5.714000	1.615791
5.715000	1.645745
5.716000	1.652187
5.717000	1.635761
5.718000	1.603551
5.719000	1.572952
5.720000	1.558780
5.721000	1.517874
5.722000	1.485342
5.723000	1.449268
5.724000	1.429298
5.725000	1.427365
5.726000	1.438317
5.727000	1.464406
5.728000	1.501769
5.729000	1.530114
5.730000	1.561035
5.731000	1.594210
5.732000	1.622233
5.733000	1.635761
5.734000	1.629319
5.735000	1.654120
5.736000	1.639626
5.737000	1.609993
5.738000	1.580360
5.739000	1.546862
5.740000	1.511754
5.741000	1.477290
5.742000	1.456676
5.743000	1.457320
5.744000	1.465373
5.745000	1.488563
5.746000	1.499837
5.747000	1.528825
5.748000	1.555559
5.749000	1.571986
5.750000	1.581004
5.751000	1.574563
5.752000	1.578750
5.753000	1.574240
5.754000	1.562645
5.755000	1.551372
5.756000	1.545896
5.757000	1.556203
5.758000	1.565866
5.759000	1.574885
5.760000	1.602263
5.761000	1.640914
5.762000	1.666682
5.763000	1.683753
5.764000	1.725625
5.765000	1.755580
5.766000	1.761055
5.767000	1.730778
5.768000	1.679565
5.769000	1.653154
5.770000	1.615791
5.771000	1.558458
5.772000	1.492106
5.773000	1.445081
5.774000	1.411905
5.775000	1.414804
5.776000	1.433485
5.777000	1.424144
5.778000	1.415770
5.779000	1.424144
5.780000	1.437350
5.781000	1.462152
5.782000	1.475680
5.783000	1.479223
5.784000	1.491784
5.785000	1.515619
5.786000	1.526248
5.787000	1.540743
5.788000	1.542353
5.789000	1.533012
5.790000	1.530436
5.791000	1.533334
5.792000	1.551050
5.793000	1.649611
5.794000	1.759767
5.795000	1.809047
5.796000	1.809047
5.797000	1.778126
5.798000	1.722082
5.799000	1.656053
5.800000	1.615791
5.801000	1.570053
5.802000	1.534301
5.803000	1.483088
5.804000	1.424467
5.805000	1.389036
5.806000	1.389680
5.807000	1.417703
5.808000	1.450234
5.809000	1.466339
5.810000	1.490818
5.811000	1.496938
5.812000	1.491784
5.813000	1.488241
5.814000	1.502091
5.815000	1.510788
5.816000	1.516586
5.817000	1.512398
5.818000	1.522061
5.819000	1.544930
5.820000	1.547185
5.821000	1.525926
5.822000	1.514653
5.823000	1.509499
5.824000	1.519162
5.825000	1.532046
5.826000	1.552338
5.827000	1.554593
5.828000	1.545574
5.829000	1.552338
5.830000	1.571664
5.831000	1.568121
5.832000	1.558780
5.833000	1.575851
5.834000	1.602585
5.835000	1.621588
5.836000	1.626420
5.837000	1.626742
5.838000	1.608383
5.839000	1.609027
5.840000	1.631251
5.841000	1.643813
5.842000	1.638015
5.843000	1.636405
5.844000	1.623843
5.845000	1.587768
5.846000	1.536233
5.847000	1.483410
5.848000	1.466661
5.849000	1.500481
5.850000	1.493717
5.851000	1.497260
5.852000	1.494039
5.853000	1.479545
5.854000	1.465373
5.855000	1.449912
5.856000	1.447657
5.857000	1.437028
5.858000	1.433807
5.859000	1.440249
5.860000	1.501447
5.861000	1.582937
5.862000	1.667970
5.863000	1.731101
5.864000	1.756224
5.865000	1.746883
5.866000	1.716606
5.867000	1.653154
5.868000	1.598398
5.869000	1.555559
5.870000	1.524638
5.871000	1.511432
5.872000	1.494361
5.873000	1.498226
5.874000	1.483088
5.875000	1.494039
5.876000	1.525604
5.877000	1.561357
5.878000	1.555559
5.879000	1.529469
5.880000	1.536878
5.881000	1.530114
5.882000	1.519162
5.883000	1.510788
5.884000	1.506279
5.885000	1.495005
5.886000	1.481477
5.887000	1.496294
5.888000	1.520773
5.889000	1.530114
5.890000	1.536233
5.891000	1.541065
5.892000	1.555881
5.893000	1.568765
5.894000	1.564256
5.895000	1.553626
5.896000	1.558136
5.897000	1.572952
5.898000	1.591634
5.899000	1.589057
5.900000	1.596465
5.901000	1.589701
5.902000	1.555881
5.903000	1.519162
5.904000	1.483410
5.905000	1.452811
5.906000	1.429620
5.907000	1.427365
5.908000	1.439605
5.909000	1.461507
5.910000	1.494039
5.911000	1.529791
5.912000	1.564900
5.913000	1.578428
5.914000	1.579072
5.915000	1.575529
5.916000	1.573274
5.917000	1.586158
5.918000	1.610959
5.919000	1.615791
5.920000	1.614502
5.921000	1.614180
5.922000	1.627064
5.923000	1.660562
5.924000	1.706943
5.925000	1.740119
5.926000	1.736576
5.927000	1.703400
5.928000	1.637371
5.929000	1.561035
5.930000	1.510144
5.931000	1.455710
5.932000	1.445403
5.933000	1.466339
5.934000	1.480511
5.935000	1.488885
5.936000	1.487919
5.937000	1.474069
5.938000	1.480189
5.939000	1.499192
5.940000	1.534945
5.941000	1.571664
5.942000	1.601296
5.943000	1.601619
5.944000	1.601296
5.945000	1.603551
5.946000	1.611281
5.947000	1.602585
5.948000	1.583903
5.949000	1.587768
5.950000	1.623199
5.951000	1.659273
5.952000	1.665715
5.953000	1.647034
5.954000	1.595177
5.955000	1.538810
5.956000	1.504346
5.957000	1.487275
5.958000	1.522061
5.959000	1.550406
5.960000	1.569087
5.961000	1.574240
5.962000	1.556203
5.963000	1.539132
5.964000	1.537522
5.965000	1.545574
5.966000	1.541709
5.967000	1.512720
5.968000	1.508855
5.969000	1.489208
5.970000	1.446369
5.971000	1.432519
5.972000	1.436384
5.973000	1.451845
5.974000	1.458286
5.975000	1.471492
5.976000	1.475035
5.977000	1.485665
5.978000	1.482121
5.979000	1.483410
5.980000	1.492106
5.981000	1.521739
5.982000	1.539454
5.983000	1.552660
5.984000	1.577784
5.985000	1.606772
5.986000	1.646390
5.987000	1.663461
5.988000	1.644779
5.989000	1.629319
5.990000	1.600330
5.991000	1.557814
5.992000	1.523027
5.993000	1.529147
5.994000	1.527859
5.995000	1.526571
5.996000	1.534301
5.997000	1.565866
5.998000	1.582615
5.999000	1.606772
6.000000	1.627708
6.001000	1.633828
6.002000	1.632218
6.003000	1.636727
6.004000	1.624165
6.005000	1.593244
6.006000	1.571020
6.007000	1.552016
6.008000	1.551372
6.009000	1.558458
6.010000	1.566510
6.011000	1.576173
6.012000	1.580038
6.013000	1.602263
6.014000	1.633506
6.015000	1.636405
6.016000	1.631251
6.017000	1.634150
6.018000	1.618690
6.019000	1.600008
6.020000	1.562001
6.021000	1.520129
6.022000	1.494683
6.023000	1.483088
6.024000	1.481799
6.025000	1.505634
6.026000	1.543642
6.027000	1.554593
6.028000	1.534945
6.029000	1.538166
6.030000	1.548795
6.031000	1.556203
6.032000	1.559102
6.033000	1.557814
6.034000	1.561035
6.035000	1.577139
6.036000	1.589379
6.037000	1.601296
6.038000	1.603873
6.039000	1.592922
6.040000	1.584225
6.041000	1.593566
6.042000	1.615469
6.043000	1.637371
6.044000	1.656053
6.045000	1.660884
6.046000	1.661206
6.047000	1.619012
6.048000	1.590989
6.049000	1.606450
6.050000	1.619334
6.051000	1.616435
6.052000	1.595177
6.053000	1.541709
6.054000	1.476646
6.055000	1.418991
6.056000	1.397411
6.057000	1.381628
6.058000	1.413193
6.059000	1.425433
6.060000	1.441215
6.061000	1.454099
6.062000	1.480833
6.063000	1.522383
6.064000	1.548473
6.065000	1.570375
6.066000	1.602585
6.067000	1.696636
6.068000	1.761055
6.069000	1.832560
6.070000	1.879908
6.071000	1.856073
6.072000	1.794875
6.073000	1.707588
6.074000	1.615147
6.075000	1.525282
6.076000	1.476968
6.077000	1.459575
6.078000	1.453777
6.079000	1.441215
6.080000	1.458609
6.081000	1.492751
6.082000	1.520451
6.083000	1.552016
6.084000	1.576173
6.085000	1.580038
6.086000	1.567477
6.087000	1.549439
6.088000	1.513043
6.089000	1.478901
6.090000	1.456998
6.091000	1.447013
6.092000	1.442826
6.093000	1.470526
6.094000	1.497904
6.095000	1.528503
6.096000	1.553626
6.097000	1.578750
6.098000	1.579394
6.099000	1.577139
6.100000	1.553949
6.101000	1.553949
6.102000	1.545896
6.103000	1.563933
6.104000	1.625454
6.105000	1.657341
6.106000	1.650577
6.107000	1.634794
6.108000	1.605484
6.109000	1.565866
6.110000	1.513043
6.111000	1.472459
6.112000	1.436706
6.113000	1.444114
6.114000	1.447013
6.115000	1.443470
6.116000	1.474391
6.117000	1.492106
6.118000	1.530114
6.119000	1.586802
6.120000	1.637371
6.121000	1.661850
6.122000	1.650899
6.123000	1.622555
6.124000	1.570375
6.125000	1.533979
6.126000	1.488563
6.127000	1.471492
6.128000	1.523672
6.129000	1.602263
6.130000	1.646390
6.131000	1.660562
6.132000	1.668292
6.133000	1.664427
6.134000	1.649289
6.135000	1.599364
6.136000	1.539776
6.137000	1.501125
6.138000	1.483732
6.139000	1.458286
6.140000	1.454743
6.141000	1.466661
6.142000	1.491140
6.143000	1.522705
6.144000	1.551372
6.145000	1.567477
6.146000	1.581649
6.147000	1.588735
6.148000	1.601296
6.149000	1.620944
6.150000	1.634150
6.151000	1.621910
6.152000	1.595821
6.153000	1.570053
6.154000	1.552982
6.155000	1.546862
6.156000	1.540421
6.157000	1.555559
6.158000	1.569731
6.159000	1.577784
6.160000	1.587768
6.161000	1.586158
6.162000	1.572308
6.163000	1.560713
6.164000	1.549439
6.165000	1.546540
6.166000	1.538810
6.167000	1.538166
6.168000	1.532368
6.169000	1.521417
6.170000	1.518518
6.171000	1.523672
6.172000	1.533012
6.173000	1.532368
6.174000	1.551694
6.175000	1.570375
6.176000	1.571664
6.177000	1.555559
6.178000	1.566188
6.179000	1.582615
6.180000	1.590667
6.181000	1.588091
6.182000	1.578750
6.183000	1.589379
6.184000	1.605162
6.185000	1.598075
6.186000	1.559424
6.187000	1.521417
6.188000	1.498870
6.189000	1.494039
6.190000	1.501769
6.191000	1.513687
6.192000	1.518518
6.193000	1.511110
6.194000	1.523350
6.195000	1.550406
6.196000	1.573918
6.197000	1.609027
6.198000	1.639626
6.199000	1.657019
6.200000	1.655408
6.201000	1.639304
6.202000	1.605806
6.203000	1.576817
6.204000	1.519807
6.205000	1.471170
6.206000	1.459253
6.207000	1.453777
6.208000	1.457642
6.209000	1.475680
6.210000	1.490496
6.211000	1.479223
6.212000	1.507245
6.213000	1.549761
6.214000	1.584548
6.215000	1.601296
6.216000	1.616435
6.217000	1.625454
6.218000	1.633506
6.219000	1.644457
6.220000	1.638337
6.221000	1.594210
6.222000	1.524960
6.223000	1.476002
6.224000	1.474713
6.225000	1.528503
6.226000	1.589057
6.227000	1.640270
6.228000	1.655408
6.229000	1.684397
6.230000	1.691483
6.231000	1.692449
6.232000	1.646712
6.233000	1.584548
6.234000	1.511432
6.235000	1.451845
6.236000	1.459575
6.237000	1.465695
6.238000	1.445725
6.239000	1.439283
6.240000	1.450556
6.241000	1.468593
6.242000	1.472781
6.243000	1.480189
6.244000	1.485987
6.245000	1.505634
6.246000	1.534301
6.247000	1.567154
6.248000	1.586802
6.249000	1.625131
6.250000	1.653476
6.251000	1.644135
6.252000	1.610959
6.253000	1.565222
6.254000	1.543964
6.255000	1.492428
6.256000	1.460541
6.257000	1.456998
6.258000	1.447013
6.259000	1.436062
6.260000	1.444436
6.261000	1.459897
6.262000	1.472459
6.263000	1.479867
6.264000	1.485342
6.265000	1.507567
6.266000	1.566188
6.267000	1.625776
6.268000	1.660562
6.269000	1.660884
6.270000	1.641880
6.271000	1.609671
6.272000	1.568765
6.273000	1.524316
6.274000	1.503702
6.275000	1.474713
6.276000	1.450234
6.277000	1.451522
6.278000	1.459253
6.279000	1.470204
6.280000	1.504668
6.281000	1.522383
6.282000	1.543964
6.283000	1.572308
6.284000	1.580682
6.285000	1.584225
6.286000	1.584548
6.287000	1.577461
6.288000	1.562323
