LabVIEW Measurement	
Writer_Version	2
Reader_Version	2
Separator	Tab
Decimal_Separator	.
Multi_Headings	Yes
X_Columns	One
Time_Pref	Relative
Operator	bjl40
Description	Time Domain Data
Date	1903/12/31
Time	19:00:00
***End_of_Header***	
	
Channels	1	
Samples	20000	
Date	1903/12/31	
Time	19:00:00	
X_Dimension	Time	
X0	0.0000000000000000E+0	
Delta_X	0.001000	
***End_of_Header***		
X_Value	Untitled	Comment
0.000000	1.469882	Tare Values:0.000000, 0.000000, 0.000000, 0.000000\0D\0A
0.001000	1.472781
0.002000	1.484698
0.003000	1.496938
0.004000	1.507245
0.005000	1.513687
0.006000	1.510466
0.007000	1.498870
0.008000	1.484376
0.009000	1.474069
0.010000	1.462796
0.011000	1.445725
0.012000	1.433163
0.013000	1.440571
0.014000	1.444114
0.015000	1.453455
0.016000	1.450878
0.017000	1.466339
0.018000	1.487275
0.019000	1.511754
0.020000	1.536233
0.021000	1.547185
0.022000	1.574240
0.023000	1.562645
0.024000	1.557814
0.025000	1.553949
0.026000	1.548473
0.027000	1.546540
0.028000	1.550083
0.029000	1.556525
0.030000	1.559746
0.031000	1.569731
0.032000	1.581649
0.033000	1.570053
0.034000	1.520773
0.035000	1.482766
0.036000	1.463440
0.037000	1.472459
0.038000	1.489530
0.039000	1.501447
0.040000	1.509177
0.041000	1.501769
0.042000	1.506601
0.043000	1.511754
0.044000	1.520129
0.045000	1.532046
0.046000	1.541065
0.047000	1.549439
0.048000	1.560713
0.049000	1.575851
0.050000	1.588091
0.051000	1.602585
0.052000	1.615791
0.053000	1.629963
0.054000	1.635761
0.055000	1.638337
0.056000	1.638981
0.057000	1.629641
0.058000	1.617401
0.059000	1.614180
0.060000	1.616113
0.061000	1.607416
0.062000	1.612892
0.063000	1.618690
0.064000	1.618045
0.065000	1.626420
0.066000	1.639948
0.067000	1.652187
0.068000	1.663783
0.069000	1.676667
0.070000	1.688906
0.071000	1.696959
0.072000	1.691483
0.073000	1.688906
0.074000	1.672801
0.075000	1.661850
0.076000	1.655086
0.077000	1.654442
0.078000	1.654764
0.079000	1.659918
0.080000	1.659596
0.081000	1.662494
0.082000	1.667648
0.083000	1.679243
0.084000	1.687940
0.085000	1.706621
0.086000	1.712419
0.087000	1.724659
0.088000	1.727558
0.089000	1.725947
0.090000	1.716606
0.091000	1.706943
0.092000	1.692449
0.093000	1.685685
0.094000	1.676989
0.095000	1.676989
0.096000	1.679888
0.097000	1.681498
0.098000	1.685041
0.099000	1.695348
0.100000	1.698247
0.101000	1.712419
0.102000	1.725947
0.103000	1.733355
0.104000	1.732711
0.105000	1.733677
0.106000	1.724014
0.107000	1.720794
0.108000	1.713707
0.109000	1.689872
0.110000	1.679565
0.111000	1.676022
0.112000	1.671191
0.113000	1.677955
0.114000	1.683753
0.115000	1.679243
0.116000	1.664427
0.117000	1.660240
0.118000	1.670547
0.119000	1.684397
0.120000	1.701790
0.121000	1.708554
0.122000	1.700824
0.123000	1.688584
0.124000	1.669580
0.125000	1.654442
0.126000	1.640270
0.127000	1.631895
0.128000	1.628352
0.129000	1.624487
0.130000	1.625776
0.131000	1.625454
0.132000	1.633828
0.133000	1.638337
0.134000	1.646068
0.135000	1.657341
0.136000	1.665715
0.137000	1.665715
0.138000	1.664427
0.139000	1.653798
0.140000	1.642202
0.141000	1.627064
0.142000	1.615791
0.143000	1.612248
0.144000	1.598075
0.145000	1.593244
0.146000	1.594855
0.147000	1.598720
0.148000	1.606128
0.149000	1.605484
0.150000	1.605806
0.151000	1.610637
0.152000	1.609027
0.153000	1.611926
0.154000	1.615147
0.155000	1.619978
0.156000	1.617079
0.157000	1.602263
0.158000	1.585514
0.159000	1.579716
0.160000	1.567154
0.161000	1.563933
0.162000	1.563611
0.163000	1.565544
0.164000	1.565544
0.165000	1.571664
0.166000	1.581649
0.167000	1.587768
0.168000	1.599686
0.169000	1.607416
0.170000	1.615469
0.171000	1.615791
0.172000	1.610315
0.173000	1.598720
0.174000	1.577139
0.175000	1.554593
0.176000	1.554593
0.177000	1.544930
0.178000	1.537844
0.179000	1.537844
0.180000	1.542675
0.181000	1.533979
0.182000	1.539132
0.183000	1.545252
0.184000	1.551372
0.185000	1.560713
0.186000	1.568443
0.187000	1.573596
0.188000	1.575207
0.189000	1.570053
0.190000	1.558780
0.191000	1.540421
0.192000	1.524316
0.193000	1.518840
0.194000	1.513365
0.195000	1.508855
0.196000	1.507889
0.197000	1.508533
0.198000	1.515297
0.199000	1.518840
0.200000	1.524316
0.201000	1.533012
0.202000	1.546540
0.203000	1.553626
0.204000	1.558780
0.205000	1.552660
0.206000	1.548151
0.207000	1.532368
0.208000	1.512076
0.209000	1.489530
0.210000	1.477934
0.211000	1.468916
0.212000	1.472781
0.213000	1.478901
0.214000	1.482121
0.215000	1.492106
0.216000	1.509499
0.217000	1.521739
0.218000	1.535589
0.219000	1.542031
0.220000	1.549761
0.221000	1.549439
0.222000	1.546540
0.223000	1.533334
0.224000	1.513365
0.225000	1.504668
0.226000	1.496938
0.227000	1.490174
0.228000	1.485987
0.229000	1.482766
0.230000	1.482121
0.231000	1.480511
0.232000	1.488563
0.233000	1.493073
0.234000	1.508533
0.235000	1.514653
0.236000	1.527537
0.237000	1.529469
0.238000	1.521417
0.239000	1.520451
0.240000	1.512398
0.241000	1.497260
0.242000	1.487919
0.243000	1.486953
0.244000	1.482121
0.245000	1.483732
0.246000	1.483088
0.247000	1.485342
0.248000	1.491784
0.249000	1.493717
0.250000	1.495005
0.251000	1.498870
0.252000	1.507567
0.253000	1.515941
0.254000	1.523994
0.255000	1.518518
0.256000	1.518518
0.257000	1.503058
0.258000	1.490818
0.259000	1.485665
0.260000	1.479223
0.261000	1.474391
0.262000	1.475357
0.263000	1.481155
0.264000	1.483732
0.265000	1.486631
0.266000	1.495327
0.267000	1.501447
0.268000	1.509822
0.269000	1.521739
0.270000	1.536233
0.271000	1.535589
0.272000	1.533657
0.273000	1.528503
0.274000	1.514009
0.275000	1.503058
0.276000	1.491462
0.277000	1.484698
0.278000	1.481477
0.279000	1.484054
0.280000	1.490496
0.281000	1.494361
0.282000	1.503702
0.283000	1.511432
0.284000	1.523027
0.285000	1.537200
0.286000	1.549439
0.287000	1.554593
0.288000	1.549117
0.289000	1.536233
0.290000	1.520451
0.291000	1.511110
0.292000	1.497904
0.293000	1.486953
0.294000	1.477290
0.295000	1.480189
0.296000	1.486309
0.297000	1.490174
0.298000	1.494039
0.299000	1.498548
0.300000	1.513365
0.301000	1.528181
0.302000	1.547507
0.303000	1.557814
0.304000	1.564256
0.305000	1.562001
0.306000	1.548151
0.307000	1.529469
0.308000	1.508533
0.309000	1.504990
0.310000	1.493395
0.311000	1.491462
0.312000	1.494039
0.313000	1.495005
0.314000	1.499837
0.315000	1.506923
0.316000	1.513365
0.317000	1.525604
0.318000	1.540421
0.319000	1.558136
0.320000	1.568765
0.321000	1.574240
0.322000	1.571664
0.323000	1.566188
0.324000	1.556203
0.325000	1.546540
0.326000	1.539454
0.327000	1.534623
0.328000	1.530114
0.329000	1.535589
0.330000	1.536555
0.331000	1.540421
0.332000	1.549761
0.333000	1.561357
0.334000	1.563933
0.335000	1.577139
0.336000	1.588413
0.337000	1.596465
0.338000	1.593566
0.339000	1.591312
0.340000	1.576495
0.341000	1.562323
0.342000	1.550728
0.343000	1.541709
0.344000	1.541387
0.345000	1.538810
0.346000	1.531724
0.347000	1.543319
0.348000	1.547507
0.349000	1.555237
0.350000	1.559746
0.351000	1.562001
0.352000	1.573918
0.353000	1.585192
0.354000	1.595821
0.355000	1.599364
0.356000	1.588413
0.357000	1.573596
0.358000	1.588413
0.359000	1.567799
0.360000	1.553626
0.361000	1.549439
0.362000	1.549439
0.363000	1.554593
0.364000	1.561679
0.365000	1.573274
0.366000	1.571986
0.367000	1.562967
0.368000	1.579394
0.369000	1.588091
0.370000	1.595177
0.371000	1.601619
0.372000	1.600330
0.373000	1.598720
0.374000	1.587446
0.375000	1.575207
0.376000	1.567477
0.377000	1.562967
0.378000	1.558780
0.379000	1.556203
0.380000	1.558780
0.381000	1.557492
0.382000	1.566188
0.383000	1.571342
0.384000	1.581971
0.385000	1.597753
0.386000	1.608060
0.387000	1.612248
0.388000	1.618690
0.389000	1.616435
0.390000	1.608060
0.391000	1.588413
0.392000	1.575851
0.393000	1.569087
0.394000	1.561679
0.395000	1.558136
0.396000	1.562645
0.397000	1.569087
0.398000	1.573918
0.399000	1.578106
0.400000	1.590667
0.401000	1.597109
0.402000	1.611603
0.403000	1.617079
0.404000	1.626420
0.405000	1.620622
0.406000	1.614824
0.407000	1.602585
0.408000	1.586480
0.409000	1.578106
0.410000	1.563933
0.411000	1.558136
0.412000	1.562323
0.413000	1.557814
0.414000	1.559102
0.415000	1.567154
0.416000	1.582615
0.417000	1.590667
0.418000	1.602263
0.419000	1.612248
0.420000	1.616757
0.421000	1.615469
0.422000	1.611281
0.423000	1.604839
0.424000	1.589701
0.425000	1.575851
0.426000	1.568765
0.427000	1.560068
0.428000	1.554593
0.429000	1.548473
0.430000	1.551694
0.431000	1.553949
0.432000	1.561035
0.433000	1.571664
0.434000	1.579394
0.435000	1.589379
0.436000	1.600652
0.437000	1.598075
0.438000	1.596787
0.439000	1.593566
0.440000	1.580038
0.441000	1.564900
0.442000	1.551694
0.443000	1.542675
0.444000	1.537844
0.445000	1.527537
0.446000	1.529791
0.447000	1.535911
0.448000	1.542997
0.449000	1.553304
0.450000	1.555237
0.451000	1.571986
0.452000	1.579072
0.453000	1.588091
0.454000	1.591634
0.455000	1.588413
0.456000	1.583259
0.457000	1.566510
0.458000	1.554593
0.459000	1.544608
0.460000	1.533979
0.461000	1.521739
0.462000	1.528181
0.463000	1.517552
0.464000	1.524638
0.465000	1.533979
0.466000	1.544930
0.467000	1.554271
0.468000	1.564578
0.469000	1.573596
0.470000	1.589057
0.471000	1.581327
0.472000	1.569409
0.473000	1.557492
0.474000	1.550406
0.475000	1.531724
0.476000	1.522705
0.477000	1.516263
0.478000	1.513365
0.479000	1.515619
0.480000	1.523027
0.481000	1.525604
0.482000	1.530114
0.483000	1.537522
0.484000	1.541065
0.485000	1.549761
0.486000	1.554915
0.487000	1.558458
0.488000	1.552982
0.489000	1.552982
0.490000	1.548473
0.491000	1.532046
0.492000	1.523350
0.493000	1.511432
0.494000	1.505312
0.495000	1.505634
0.496000	1.510144
0.497000	1.512076
0.498000	1.518196
0.499000	1.524638
0.500000	1.532368
0.501000	1.539454
0.502000	1.551694
0.503000	1.558780
0.504000	1.559746
0.505000	1.559424
0.506000	1.559424
0.507000	1.547507
0.508000	1.536233
0.509000	1.527215
0.510000	1.523027
0.511000	1.512076
0.512000	1.507567
0.513000	1.509499
0.514000	1.520773
0.515000	1.529469
0.516000	1.535267
0.517000	1.536878
0.518000	1.544286
0.519000	1.548795
0.520000	1.561357
0.521000	1.568121
0.522000	1.566510
0.523000	1.560390
0.524000	1.552016
0.525000	1.548473
0.526000	1.539776
0.527000	1.530114
0.528000	1.523350
0.529000	1.523994
0.530000	1.524638
0.531000	1.527859
0.532000	1.536878
0.533000	1.545252
0.534000	1.555559
0.535000	1.567477
0.536000	1.580038
0.537000	1.587124
0.538000	1.583581
0.539000	1.586480
0.540000	1.576173
0.541000	1.565222
0.542000	1.546540
0.543000	1.532690
0.544000	1.525604
0.545000	1.520451
0.546000	1.520129
0.547000	1.513365
0.548000	1.520773
0.549000	1.525604
0.550000	1.534623
0.551000	1.542997
0.552000	1.570375
0.553000	1.587446
0.554000	1.590023
0.555000	1.590989
0.556000	1.576173
0.557000	1.561035
0.558000	1.550083
0.559000	1.536233
0.560000	1.520451
0.561000	1.514331
0.562000	1.507245
0.563000	1.503380
0.564000	1.507245
0.565000	1.519162
0.566000	1.529469
0.567000	1.539776
0.568000	1.557169
0.569000	1.578750
0.570000	1.592278
0.571000	1.601619
0.572000	1.608383
0.573000	1.601619
0.574000	1.603551
0.575000	1.601296
0.576000	1.595499
0.577000	1.585514
0.578000	1.588413
0.579000	1.586802
0.580000	1.581004
0.581000	1.583903
0.582000	1.595499
0.583000	1.597109
0.584000	1.598075
0.585000	1.609993
0.586000	1.617079
0.587000	1.613858
0.588000	1.609027
0.589000	1.606772
0.590000	1.592922
0.591000	1.576817
0.592000	1.572308
0.593000	1.562323
0.594000	1.536555
0.595000	1.531080
0.596000	1.543642
0.597000	1.526248
0.598000	1.511110
0.599000	1.512720
0.600000	1.519484
0.601000	1.525926
0.602000	1.538810
0.603000	1.552016
0.604000	1.557814
0.605000	1.559746
0.606000	1.561035
0.607000	1.547829
0.608000	1.534623
0.609000	1.526571
0.610000	1.517230
0.611000	1.515619
0.612000	1.512720
0.613000	1.522061
0.614000	1.528503
0.615000	1.534301
0.616000	1.545896
0.617000	1.552338
0.618000	1.567799
0.619000	1.578750
0.620000	1.586802
0.621000	1.589701
0.622000	1.591634
0.623000	1.589057
0.624000	1.557814
0.625000	1.558780
0.626000	1.551050
0.627000	1.541387
0.628000	1.535267
0.629000	1.536878
0.630000	1.547185
0.631000	1.548795
0.632000	1.558136
0.633000	1.569087
0.634000	1.571986
0.635000	1.580682
0.636000	1.584548
0.637000	1.590345
0.638000	1.592922
0.639000	1.577461
0.640000	1.570375
0.641000	1.559102
0.642000	1.544608
0.643000	1.539776
0.644000	1.535911
0.645000	1.531402
0.646000	1.531080
0.647000	1.532368
0.648000	1.541709
0.649000	1.552016
0.650000	1.567477
0.651000	1.579716
0.652000	1.590345
0.653000	1.606128
0.654000	1.602585
0.655000	1.600974
0.656000	1.595499
0.657000	1.577784
0.658000	1.566832
0.659000	1.558780
0.660000	1.548473
0.661000	1.544608
0.662000	1.546862
0.663000	1.548151
0.664000	1.548795
0.665000	1.554271
0.666000	1.558458
0.667000	1.567799
0.668000	1.581327
0.669000	1.596465
0.670000	1.601296
0.671000	1.597753
0.672000	1.597753
0.673000	1.596465
0.674000	1.577784
0.675000	1.567154
0.676000	1.560390
0.677000	1.546862
0.678000	1.541709
0.679000	1.541065
0.680000	1.554915
0.681000	1.555881
0.682000	1.563289
0.683000	1.567477
0.684000	1.576495
0.685000	1.586480
0.686000	1.605162
0.687000	1.600008
0.688000	1.588413
0.689000	1.576817
0.690000	1.563289
0.691000	1.539132
0.692000	1.525604
0.693000	1.518196
0.694000	1.531402
0.695000	1.552338
0.696000	1.541709
0.697000	1.542031
0.698000	1.542675
0.699000	1.547507
0.700000	1.555237
0.701000	1.563289
0.702000	1.572630
0.703000	1.580682
0.704000	1.582937
0.705000	1.582615
0.706000	1.584870
0.707000	1.569409
0.708000	1.553949
0.709000	1.545252
0.710000	1.536233
0.711000	1.522383
0.712000	1.517874
0.713000	1.519162
0.714000	1.520451
0.715000	1.524316
0.716000	1.534945
0.717000	1.543964
0.718000	1.558136
0.719000	1.572308
0.720000	1.578428
0.721000	1.577139
0.722000	1.575851
0.723000	1.566188
0.724000	1.554915
0.725000	1.550406
0.726000	1.547185
0.727000	1.541709
0.728000	1.524316
0.729000	1.515941
0.730000	1.518518
0.731000	1.527215
0.732000	1.528181
0.733000	1.543319
0.734000	1.553626
0.735000	1.574563
0.736000	1.596787
0.737000	1.596787
0.738000	1.596465
0.739000	1.592600
0.740000	1.585192
0.741000	1.568765
0.742000	1.566510
0.743000	1.553304
0.744000	1.544286
0.745000	1.537522
0.746000	1.536878
0.747000	1.538810
0.748000	1.547185
0.749000	1.556847
0.750000	1.575529
0.751000	1.586158
0.752000	1.597431
0.753000	1.604839
0.754000	1.591312
0.755000	1.577461
0.756000	1.569087
0.757000	1.565544
0.758000	1.566510
0.759000	1.559102
0.760000	1.558780
0.761000	1.552016
0.762000	1.545574
0.763000	1.544286
0.764000	1.548795
0.765000	1.553949
0.766000	1.562645
0.767000	1.568121
0.768000	1.576495
0.769000	1.583259
0.770000	1.587446
0.771000	1.583903
0.772000	1.585514
0.773000	1.578750
0.774000	1.551372
0.775000	1.534623
0.776000	1.523994
0.777000	1.507889
0.778000	1.493395
0.779000	1.481799
0.780000	1.488241
0.781000	1.502091
0.782000	1.511110
0.783000	1.514653
0.784000	1.517874
0.785000	1.525604
0.786000	1.535911
0.787000	1.528181
0.788000	1.524960
0.789000	1.514975
0.790000	1.500159
0.791000	1.476968
0.792000	1.455066
0.793000	1.439283
0.794000	1.437672
0.795000	1.422856
0.796000	1.412871
0.797000	1.411583
0.798000	1.424789
0.799000	1.435096
0.800000	1.433485
0.801000	1.428332
0.802000	1.425755
0.803000	1.426721
0.804000	1.422856
0.805000	1.411261
0.806000	1.388714
0.807000	1.358115
0.808000	1.340722
0.809000	1.318820
0.810000	1.294985
0.811000	1.267929
0.812000	1.259232
0.813000	1.248925
0.814000	1.240229
0.815000	1.236363
0.816000	1.239262
0.817000	1.240229
0.818000	1.242161
0.819000	1.246670
0.820000	1.234109
0.821000	1.226056
0.822000	1.215749
0.823000	1.207053
0.824000	1.201899
0.825000	1.194169
0.826000	1.191592
0.827000	1.199323
0.828000	1.215427
0.829000	1.243127
0.830000	1.290475
0.831000	1.342655
0.832000	1.364235
0.833000	1.372931
0.834000	1.374220
0.835000	1.375186
0.836000	1.388714
0.837000	1.392901
0.838000	1.392257
0.839000	1.390002
0.840000	1.391935
0.841000	1.392257
0.842000	1.412549
0.843000	1.443792
0.844000	1.474713
0.845000	1.505956
0.846000	1.533012
0.847000	1.552016
0.848000	1.577461
0.849000	1.604517
0.850000	1.636727
0.851000	1.667004
0.852000	1.698891
0.853000	1.728846
0.854000	1.746239
0.855000	1.752037
0.856000	1.772651
0.857000	1.784246
0.858000	1.787789
0.859000	1.806149
0.860000	1.814201
0.861000	1.820643
0.862000	1.842867
0.863000	1.874433
0.864000	1.899556
0.865000	1.933376
0.866000	1.958499
0.867000	1.973316
0.868000	1.991353
0.869000	2.014866
0.870000	2.028072
0.871000	2.020664
0.872000	2.016154
0.873000	1.999083
0.874000	1.971705
0.875000	1.938207
0.876000	1.905354
0.877000	1.862837
0.878000	1.839969
0.879000	1.818066
0.880000	1.798096
0.881000	1.776838
0.882000	1.769752
0.883000	1.759767
0.884000	1.743984
0.885000	1.741408
0.886000	1.742052
0.887000	1.738187
0.888000	1.731423
0.889000	1.723048
0.890000	1.702756
0.891000	1.683753
0.892000	1.668292
0.893000	1.658307
0.894000	1.647356
0.895000	1.644457
0.896000	1.639304
0.897000	1.639948
0.898000	1.647678
0.899000	1.656697
0.900000	1.673768
0.901000	1.675378
0.902000	1.688584
0.903000	1.696636
0.904000	1.684075
0.905000	1.672801
0.906000	1.653154
0.907000	1.626420
0.908000	1.602263
0.909000	1.587446
0.910000	1.564256
0.911000	1.552982
0.912000	1.543319
0.913000	1.544608
0.914000	1.544286
0.915000	1.549439
0.916000	1.558136
0.917000	1.558136
0.918000	1.560390
0.919000	1.566510
0.920000	1.569731
0.921000	1.562323
0.922000	1.560713
0.923000	1.583581
0.924000	1.569409
0.925000	1.541065
0.926000	1.511432
0.927000	1.493395
0.928000	1.482444
0.929000	1.482444
0.930000	1.484376
0.931000	1.492106
0.932000	1.507245
0.933000	1.519162
0.934000	1.526893
0.935000	1.539776
0.936000	1.548795
0.937000	1.545896
0.938000	1.543964
0.939000	1.536555
0.940000	1.525926
0.941000	1.514653
0.942000	1.506923
0.943000	1.514653
0.944000	1.532690
0.945000	1.501769
0.946000	1.495005
0.947000	1.491784
0.948000	1.497904
0.949000	1.500481
0.950000	1.507567
0.951000	1.517230
0.952000	1.529791
0.953000	1.534301
0.954000	1.536878
0.955000	1.533012
0.956000	1.523027
0.957000	1.503702
0.958000	1.485987
0.959000	1.474069
0.960000	1.465050
0.961000	1.460219
0.962000	1.455066
0.963000	1.457320
0.964000	1.458931
0.965000	1.470526
0.966000	1.487597
0.967000	1.504024
0.968000	1.515941
0.969000	1.522383
0.970000	1.524960
0.971000	1.523350
0.972000	1.519807
0.973000	1.508533
0.974000	1.492751
0.975000	1.467305
0.976000	1.482444
0.977000	1.492428
0.978000	1.475680
0.979000	1.475035
0.980000	1.468271
0.981000	1.464728
0.982000	1.474713
0.983000	1.486309
0.984000	1.496294
0.985000	1.512398
0.986000	1.532690
0.987000	1.537200
0.988000	1.547185
0.989000	1.547185
0.990000	1.542031
0.991000	1.530114
0.992000	1.524316
0.993000	1.526571
0.994000	1.522061
0.995000	1.526248
0.996000	1.535589
0.997000	1.547185
0.998000	1.600330
0.999000	1.611603
1.000000	1.613858
1.001000	1.629963
1.002000	1.657663
1.003000	1.676022
1.004000	1.684719
1.005000	1.683753
1.006000	1.684719
1.007000	1.672157
1.008000	1.662172
1.009000	1.641236
1.010000	1.582293
1.011000	0.276523
1.012000	0.201797
1.013000	0.198576
1.014000	0.207916
1.015000	0.231107
1.016000	0.269436
1.017000	0.333211
1.018000	0.407615
1.019000	0.486206
1.020000	0.562542
1.021000	0.620519
1.022000	0.659493
1.023000	0.676886
1.024000	0.811199
1.025000	1.203510
1.026000	1.738187
1.027000	2.329231
1.028000	2.492211
1.029000	2.767280
1.030000	2.766314
1.031000	2.767602
1.032000	2.767602
1.033000	2.767924
1.034000	2.766636
1.035000	2.768246
1.036000	2.766958
1.037000	2.766314
1.038000	2.767602
1.039000	2.768569
1.040000	2.767924
1.041000	2.768569
1.042000	2.773078
1.043000	2.767602
1.044000	2.767602
1.045000	2.763415
1.046000	2.766958
1.047000	2.768246
1.048000	2.767602
1.049000	2.767924
1.050000	2.773400
1.051000	2.766636
1.052000	2.764381
1.053000	2.764059
1.054000	2.768569
1.055000	2.767924
1.056000	2.765992
1.057000	2.767602
1.058000	2.766958
1.059000	2.766314
1.060000	2.769857
1.061000	2.764059
1.062000	2.767602
1.063000	2.766636
1.064000	2.767280
1.065000	2.766958
1.066000	2.765670
1.067000	2.765670
1.068000	2.769213
1.069000	2.768891
1.070000	2.768246
1.071000	2.746666
1.072000	2.499619
1.073000	2.460323
1.074000	2.345657
1.075000	2.186865
1.076000	2.114393
1.077000	2.142093
1.078000	2.181711
1.079000	2.336639
1.080000	2.428114
1.081000	2.441964
1.082000	2.407500
1.083000	2.256759
1.084000	1.859938
1.085000	1.297883
1.086000	0.959040
1.087000	0.754510
1.088000	0.665612
1.089000	0.656916
1.090000	0.655950
1.091000	0.658204
1.092000	0.655950
1.093000	0.654983
1.094000	0.658848
1.095000	0.743237
1.096000	1.019594
1.097000	1.352962
1.098000	1.616757
1.099000	1.814845
1.100000	1.908897
1.101000	1.764598
1.102000	1.492428
1.103000	1.352962
1.104000	1.327194
1.105000	1.336535
1.106000	1.359081
1.107000	1.379051
1.108000	1.402242
1.109000	1.426077
1.110000	1.444114
1.111000	1.467305
1.112000	1.486631
1.113000	1.502091
1.114000	1.520773
1.115000	1.536878
1.116000	1.564900
1.117000	1.592278
1.118000	1.594855
1.119000	1.594210
1.120000	1.591634
1.121000	1.586802
1.122000	1.578428
1.123000	1.560068
1.124000	1.555559
1.125000	1.550083
1.126000	1.550728
1.127000	1.548151
1.128000	1.541709
1.129000	1.545252
1.130000	1.548795
1.131000	1.547829
1.132000	1.550083
1.133000	1.552016
1.134000	1.552982
1.135000	1.556847
1.136000	1.572952
1.137000	1.588091
1.138000	1.602585
1.139000	1.572952
1.140000	1.544286
1.141000	1.517230
1.142000	1.495327
1.143000	1.470848
1.144000	1.446369
1.145000	1.439283
1.146000	1.436706
1.147000	1.436706
1.148000	1.440893
1.149000	1.450234
1.150000	1.460219
1.151000	1.471814
1.152000	1.485665
1.153000	1.492106
1.154000	1.497260
1.155000	1.488241
1.156000	1.478901
1.157000	1.463440
1.158000	1.448624
1.159000	1.444114
1.160000	1.439283
1.161000	1.439283
1.162000	1.452489
1.163000	1.475680
1.164000	1.477934
1.165000	1.480511
1.166000	1.486953
1.167000	1.504668
1.168000	1.512076
1.169000	1.523994
1.170000	1.528181
1.171000	1.527215
1.172000	1.520773
1.173000	1.504990
1.174000	1.485342
1.175000	1.481477
1.176000	1.473747
1.177000	1.487597
1.178000	1.510788
1.179000	1.527537
1.180000	1.543642
1.181000	1.548151
1.182000	1.560713
1.183000	1.587124
1.184000	1.603873
1.185000	1.620300
1.186000	1.642202
1.187000	1.658307
1.188000	1.672157
1.189000	1.684719
1.190000	1.699535
1.191000	1.722726
1.192000	1.733033
1.193000	1.720794
1.194000	0.851139
1.195000	0.551913
1.196000	0.484917
1.197000	0.489749
1.198000	0.519704
1.199000	0.546115
1.200000	0.586699
1.201000	0.660459
1.202000	0.793162
1.203000	1.504668
1.204000	2.346302
1.205000	2.498008
1.206000	2.769857
1.207000	2.769535
1.208000	2.766636
1.209000	2.766958
1.210000	2.767924
1.211000	2.766636
1.212000	2.768891
1.213000	2.769535
1.214000	2.768569
1.215000	2.768891
1.216000	2.767280
1.217000	2.768246
1.218000	2.769213
1.219000	2.775010
1.220000	2.769213
1.221000	2.767924
1.222000	2.768891
1.223000	2.766636
1.224000	2.768569
1.225000	2.767602
1.226000	2.767924
1.227000	2.767602
1.228000	2.766958
1.229000	2.767280
1.230000	2.764381
1.231000	2.766636
1.232000	2.766314
1.233000	2.766636
1.234000	2.767924
1.235000	2.766958
1.236000	2.766958
1.237000	2.765348
1.238000	2.771145
1.239000	2.768246
1.240000	2.769857
1.241000	2.766958
1.242000	2.768246
1.243000	2.767924
1.244000	2.769213
1.245000	2.768891
1.246000	2.767924
1.247000	2.766314
1.248000	2.769857
1.249000	2.768891
1.250000	2.769857
1.251000	2.767924
1.252000	2.768569
1.253000	2.766958
1.254000	2.767924
1.255000	2.770179
1.256000	2.766636
1.257000	2.768891
1.258000	2.766314
1.259000	2.770501
1.260000	2.766636
1.261000	2.766958
1.262000	2.768891
1.263000	2.768246
1.264000	2.767602
1.265000	2.767924
1.266000	2.768246
1.267000	2.768569
1.268000	2.768246
1.269000	2.766636
1.270000	2.765026
1.271000	2.765992
1.272000	2.767924
1.273000	2.768569
1.274000	2.769857
1.275000	2.765026
1.276000	2.772434
1.277000	2.765670
1.278000	2.768891
1.279000	2.767924
1.280000	2.769213
1.281000	2.772756
1.282000	2.767602
1.283000	2.768569
1.284000	2.433267
1.285000	1.175165
1.286000	0.635335
1.287000	0.624384
1.288000	0.597973
1.289000	0.571239
1.290000	0.544505
1.291000	0.530977
1.292000	0.520348
1.293000	0.520026
1.294000	0.521958
1.295000	0.521958
1.296000	0.525179
1.297000	0.522603
1.298000	0.528400
1.299000	0.527112
1.300000	0.528722
1.301000	0.536453
1.302000	0.540318
1.303000	0.544827
1.304000	0.548048
1.305000	0.548370
1.306000	0.555134
1.307000	0.555778
1.308000	0.559965
1.309000	0.564475
1.310000	0.568018
1.311000	0.563186
1.312000	0.575748
1.313000	0.584445
1.314000	0.587988
1.315000	0.591853
1.316000	0.601516
1.317000	0.604092
1.318000	0.606025
1.319000	0.613433
1.320000	0.619875
1.321000	0.623096
1.322000	0.623418
1.323000	0.631470
1.324000	0.627605
1.325000	0.631470
1.326000	0.634369
1.327000	0.634369
1.328000	0.630182
1.329000	0.635980
1.330000	0.635013
1.331000	0.639201
1.332000	0.635013
1.333000	0.637268
1.334000	0.636946
1.335000	0.635013
1.336000	0.634369
1.337000	0.634691
1.338000	0.632437
1.339000	0.635980
1.340000	0.638879
1.341000	0.642099
1.342000	0.647575
1.343000	0.658526
1.344000	0.675919
1.345000	0.694279
1.346000	0.709739
1.347000	0.727454
1.348000	0.748068
1.349000	0.769971
1.350000	0.790907
1.351000	0.815386
1.352000	0.839543
1.353000	0.864667
1.354000	0.888824
1.355000	0.900741
1.356000	0.917168
1.357000	0.923610
1.358000	0.936816
1.359000	0.950344
1.360000	0.964838
1.361000	0.988673
1.362000	1.018950
1.363000	1.048905
1.364000	1.071129
1.365000	1.094964
1.366000	1.129750
1.367000	1.151653
1.368000	1.187727
1.369000	1.215105
1.370000	1.367778
1.371000	1.761055
1.372000	2.184610
1.373000	2.340182
1.374000	2.356287
1.375000	2.287036
1.376000	2.125989
1.377000	1.877009
1.378000	1.573596
1.379000	1.132649
1.380000	0.823761
1.381000	0.677530
1.382000	0.650796
1.383000	0.654017
1.384000	0.742915
1.385000	0.961295
1.386000	1.192559
1.387000	1.440249
1.388000	1.649289
1.389000	1.779415
1.390000	1.885706
1.391000	1.932088
1.392000	1.911474
1.393000	1.795842
1.394000	1.662172
1.395000	1.455388
1.396000	1.157772
1.397000	0.991250
1.398000	0.934561
1.399000	0.941647
1.400000	0.979332
1.401000	1.108814
1.402000	1.320430
1.403000	1.485020
1.404000	1.630929
1.405000	1.678599
1.406000	1.671191
1.407000	1.646390
1.408000	1.578750
1.409000	1.461830
1.410000	1.300138
1.411000	1.153585
1.412000	0.969669
1.413000	0.802180
1.414000	0.724878
1.415000	0.715859
1.416000	0.736795
1.417000	0.791229
1.418000	0.928763
1.419000	1.055024
1.420000	1.125563
1.421000	1.175810
1.422000	1.210596
1.423000	1.245704
1.424000	1.300138
1.425000	1.294985
1.426000	1.301426
1.427000	1.457320
1.428000	1.788111
1.429000	1.729168
1.430000	1.516263
1.431000	1.385493
1.432000	1.643169
1.433000	1.811624
1.434000	1.914695
1.435000	2.153045
1.436000	2.248063
1.437000	2.256437
1.438000	2.294444
1.439000	2.307650
1.440000	2.271576
1.441000	2.202003
1.442000	2.104408
1.443000	1.993930
1.444000	1.905354
1.445000	1.835137
1.446000	1.776516
1.447000	1.722082
1.448000	1.676989
1.449000	1.636405
1.450000	1.601296
1.451000	1.577784
1.452000	1.555237
1.453000	1.532046
1.454000	1.503058
1.455000	1.466661
1.456000	1.433163
1.457000	1.394512
1.458000	1.362947
1.459000	1.331381
1.460000	1.305292
1.461000	1.289509
1.462000	1.281457
1.463000	1.281779
1.464000	1.280490
1.465000	1.278236
1.466000	1.284033
1.467000	1.290153
1.468000	1.295629
1.469000	1.306258
1.470000	1.301104
1.471000	1.295629
1.472000	1.288543
1.473000	1.275981
1.474000	1.277269
1.475000	1.285966
1.476000	1.317209
1.477000	1.341366
1.478000	1.364879
1.479000	1.383561
1.480000	1.419635
1.481000	1.468916
1.482000	1.516586
1.483000	1.561357
1.484000	1.618690
1.485000	1.675056
1.486000	1.730134
1.487000	1.776838
1.488000	1.808081
1.489000	1.820965
1.490000	1.811946
1.491000	1.793265
1.492000	1.778448
1.493000	1.778448
1.494000	1.775228
1.495000	1.779737
1.496000	1.783602
1.497000	1.784246
1.498000	1.773939
1.499000	1.754613
1.500000	1.743984
1.501000	1.742374
1.502000	1.758479
1.503000	1.735932
1.504000	1.698569
1.505000	1.681820
1.506000	1.657663
1.507000	1.636083
1.508000	1.625131
1.509000	1.608705
1.510000	1.575207
1.511000	1.566832
1.512000	1.546862
1.513000	1.549117
1.514000	1.537522
1.515000	1.543319
1.516000	1.549117
1.517000	1.559102
1.518000	1.571342
1.519000	1.585836
1.520000	1.593244
1.521000	1.596465
1.522000	1.599364
1.523000	1.585514
1.524000	1.569409
1.525000	1.562645
1.526000	1.554915
1.527000	1.552338
1.528000	1.549117
1.529000	1.541387
1.530000	1.538488
1.531000	1.533334
1.532000	1.534623
1.533000	1.540098
1.534000	1.552016
1.535000	1.571664
1.536000	1.570053
1.537000	1.559102
1.538000	1.558458
1.539000	1.542997
1.540000	1.524316
1.541000	1.518196
1.542000	1.506279
1.543000	1.496616
1.544000	1.493717
1.545000	1.508533
1.546000	1.516908
1.547000	1.514009
1.548000	1.519484
1.549000	1.522383
1.550000	1.530114
1.551000	1.543964
1.552000	1.556847
1.553000	1.561357
1.554000	1.554915
1.555000	1.546540
1.556000	1.521417
1.557000	1.503058
1.558000	1.471492
1.559000	1.455388
1.560000	1.442182
1.561000	1.444759
1.562000	1.445725
1.563000	1.447013
1.564000	1.449912
1.565000	1.457320
1.566000	1.471814
1.567000	1.484698
1.568000	1.499515
1.569000	1.514653
1.570000	1.522383
1.571000	1.522383
1.572000	1.520451
1.573000	1.511432
1.574000	1.494039
1.575000	1.488563
1.576000	1.477934
1.577000	1.473425
1.578000	1.475357
1.579000	1.474713
1.580000	1.476968
1.581000	1.479867
1.582000	1.490174
1.583000	1.496294
1.584000	1.511432
1.585000	1.526893
1.586000	1.544286
1.587000	1.538810
1.588000	1.525926
1.589000	1.513687
1.590000	1.500481
1.591000	1.483410
1.592000	1.471492
1.593000	1.478256
1.594000	1.481799
1.595000	1.476646
1.596000	1.471814
1.597000	1.480833
1.598000	1.484376
1.599000	1.495327
1.600000	1.500159
1.601000	1.510788
1.602000	1.525282
1.603000	1.533979
1.604000	1.540743
1.605000	1.531402
1.606000	1.521739
1.607000	1.505312
1.608000	1.491140
1.609000	1.484698
1.610000	1.482121
1.611000	1.476324
1.612000	1.474069
1.613000	1.477934
1.614000	1.485342
1.615000	1.491140
1.616000	1.501769
1.617000	1.510466
1.618000	1.528503
1.619000	1.542675
1.620000	1.552338
1.621000	1.552982
1.622000	1.552660
1.623000	1.542031
1.624000	1.519162
1.625000	1.510466
1.626000	1.506601
1.627000	1.498548
1.628000	1.496938
1.629000	1.501769
1.630000	1.504346
1.631000	1.507245
1.632000	1.505956
1.633000	1.516908
1.634000	1.524638
1.635000	1.533657
1.636000	1.543642
1.637000	1.550083
1.638000	1.552338
1.639000	1.552338
1.640000	1.540743
1.641000	1.531724
1.642000	1.528181
1.643000	1.514331
1.644000	1.507889
1.645000	1.501447
1.646000	1.506279
1.647000	1.502736
1.648000	1.507889
1.649000	1.513687
1.650000	1.519807
1.651000	1.532690
1.652000	1.548151
1.653000	1.551694
1.654000	1.551372
1.655000	1.548795
1.656000	1.538810
1.657000	1.522383
1.658000	1.510466
1.659000	1.504668
1.660000	1.498226
1.661000	1.499837
1.662000	1.498870
1.663000	1.499192
1.664000	1.497260
1.665000	1.494683
1.666000	1.501447
1.667000	1.506923
1.668000	1.526571
1.669000	1.535267
1.670000	1.540098
1.671000	1.542675
1.672000	1.542031
1.673000	1.531724
1.674000	1.518840
1.675000	1.517230
1.676000	1.511110
1.677000	1.509822
1.678000	1.502736
1.679000	1.500803
1.680000	1.505634
1.681000	1.516586
1.682000	1.535267
1.683000	1.539454
1.684000	1.547829
1.685000	1.558780
1.686000	1.559746
1.687000	1.556203
1.688000	1.558458
1.689000	1.551050
1.690000	1.536878
1.691000	1.533657
1.692000	1.528825
1.693000	1.528503
1.694000	1.527859
1.695000	1.534301
1.696000	1.538810
1.697000	1.536233
1.698000	1.538166
1.699000	1.550728
1.700000	1.553949
1.701000	1.568443
1.702000	1.571986
1.703000	1.576817
1.704000	1.600330
1.705000	1.601296
1.706000	1.590023
1.707000	1.566832
1.708000	1.546218
1.709000	1.539776
1.710000	1.532368
1.711000	1.530114
1.712000	1.533979
1.713000	1.535267
1.714000	1.560713
1.715000	1.565544
1.716000	1.581327
1.717000	1.590667
1.718000	1.599686
1.719000	1.603873
1.720000	1.593566
1.721000	1.584870
1.722000	1.587124
1.723000	1.579394
1.724000	1.568121
1.725000	1.563933
1.726000	1.554593
1.727000	1.553304
1.728000	1.554271
1.729000	1.553626
1.730000	1.552338
1.731000	1.559746
1.732000	1.565544
1.733000	1.572308
1.734000	1.581649
1.735000	1.593566
1.736000	1.601296
1.737000	1.599364
1.738000	1.591312
1.739000	1.574240
1.740000	1.542353
1.741000	1.498548
1.742000	1.476324
1.743000	1.462474
1.744000	1.464406
1.745000	1.485665
1.746000	1.505956
1.747000	1.526248
1.748000	1.537522
1.749000	1.558136
1.750000	1.573596
1.751000	1.582615
1.752000	1.598075
1.753000	1.604839
1.754000	1.597109
1.755000	1.592600
1.756000	1.583581
1.757000	1.557492
1.758000	1.547829
1.759000	1.533657
1.760000	1.526248
1.761000	1.518196
1.762000	1.514975
1.763000	1.518840
1.764000	1.523994
1.765000	1.530758
1.766000	1.540098
1.767000	1.551372
1.768000	1.563611
1.769000	1.576495
1.770000	1.576495
1.771000	1.571342
1.772000	1.569731
1.773000	1.555237
1.774000	1.535911
1.775000	1.524960
1.776000	1.516263
1.777000	1.505312
1.778000	1.504990
1.779000	1.508855
1.780000	1.509499
1.781000	1.511432
1.782000	1.520773
1.783000	1.528503
1.784000	1.548151
1.785000	1.561357
1.786000	1.569731
1.787000	1.573274
1.788000	1.571986
1.789000	1.563289
1.790000	1.547185
1.791000	1.527215
1.792000	1.529791
1.793000	1.502736
1.794000	1.508855
1.795000	1.507567
1.796000	1.514009
1.797000	1.516263
1.798000	1.520773
1.799000	1.529469
1.800000	1.536233
1.801000	1.550406
1.802000	1.561035
1.803000	1.557492
1.804000	1.543642
1.805000	1.538166
1.806000	1.530436
1.807000	1.518518
1.808000	1.509499
1.809000	1.489852
1.810000	1.474713
1.811000	1.485987
1.812000	1.517230
1.813000	1.545252
1.814000	1.542675
1.815000	1.542675
1.816000	1.540421
1.817000	1.542031
1.818000	1.562323
1.819000	1.575851
1.820000	1.582293
1.821000	1.574885
1.822000	1.562967
1.823000	1.533334
1.824000	1.512398
1.825000	1.503380
1.826000	1.496294
1.827000	1.491462
1.828000	1.491462
1.829000	1.496938
1.830000	1.504346
1.831000	1.507889
1.832000	1.519162
1.833000	1.531402
1.834000	1.544930
1.835000	1.558458
1.836000	1.577139
1.837000	1.585836
1.838000	1.579716
1.839000	1.563611
1.840000	1.539454
1.841000	1.527215
1.842000	1.526248
1.843000	1.523672
1.844000	1.519484
1.845000	1.507889
1.846000	1.506279
1.847000	1.505956
1.848000	1.519484
1.849000	1.534945
1.850000	1.542031
1.851000	1.552660
1.852000	1.565866
1.853000	1.573596
1.854000	1.569087
1.855000	1.568121
1.856000	1.559102
1.857000	1.542353
1.858000	1.532368
1.859000	1.523672
1.860000	1.510788
1.861000	1.502413
1.862000	1.483410
1.863000	1.470526
1.864000	1.468916
1.865000	1.495005
1.866000	1.524638
1.867000	1.555559
1.868000	1.586480
1.869000	1.602585
1.870000	1.607094
1.871000	1.602263
1.872000	1.590989
1.873000	1.582615
1.874000	1.552016
1.875000	1.542997
1.876000	1.543319
1.877000	1.533012
1.878000	1.530114
1.879000	1.515619
1.880000	1.523027
1.881000	1.526893
1.882000	1.541065
1.883000	1.554915
1.884000	1.571020
1.885000	1.580682
1.886000	1.589701
1.887000	1.588413
1.888000	1.590989
1.889000	1.588413
1.890000	1.571664
1.891000	1.567154
1.892000	1.566188
1.893000	1.554593
1.894000	1.519484
1.895000	1.465050
1.896000	1.412549
1.897000	1.380662
1.898000	1.371965
1.899000	1.387104
1.900000	1.410294
1.901000	1.445081
1.902000	1.479223
1.903000	1.529147
1.904000	1.579072
1.905000	1.624487
1.906000	1.648000
1.907000	1.658951
1.908000	1.667004
1.909000	1.661850
1.910000	1.655730
1.911000	1.629963
1.912000	1.611603
1.913000	1.597431
1.914000	1.586802
1.915000	1.585514
1.916000	1.587768
1.917000	1.592922
1.918000	1.611603
1.919000	1.619656
1.920000	1.622233
1.921000	1.622233
1.922000	1.617079
1.923000	1.604517
1.924000	1.589057
1.925000	1.572308
1.926000	1.558136
1.927000	1.548151
1.928000	1.542675
1.929000	1.544286
1.930000	1.544608
1.931000	1.550083
1.932000	1.555237
1.933000	1.569409
1.934000	1.586158
1.935000	1.606450
1.936000	1.614824
1.937000	1.610315
1.938000	1.609671
1.939000	1.604195
1.940000	1.591956
1.941000	1.580038
1.942000	1.568443
1.943000	1.557492
1.944000	1.551050
1.945000	1.553949
1.946000	1.546862
1.947000	1.554593
1.948000	1.573918
1.949000	1.591956
1.950000	1.588413
1.951000	1.610315
1.952000	1.640914
1.953000	1.650899
1.954000	1.646068
1.955000	1.652832
1.956000	1.640270
1.957000	1.627708
1.958000	1.611603
1.959000	1.597109
1.960000	1.592922
1.961000	1.585514
1.962000	1.582293
1.963000	1.589057
1.964000	1.592922
1.965000	1.603873
1.966000	1.619656
1.967000	1.631251
1.968000	1.649933
1.969000	1.658951
1.970000	1.663461
1.971000	1.661528
1.972000	1.660884
1.973000	1.644779
1.974000	1.605162
1.975000	1.527537
1.976000	1.431231
1.977000	1.340722
1.978000	1.260843
1.979000	1.183862
1.980000	1.148754
1.981000	1.161960
1.982000	1.233142
1.983000	1.328160
1.984000	1.460219
1.985000	1.601296
1.986000	1.720149
1.987000	1.796164
1.988000	1.865092
1.989000	1.903743
1.990000	1.903421
1.991000	1.900844
1.992000	1.892470
1.993000	1.909541
1.994000	1.931121
1.995000	1.933376
1.996000	1.915983
1.997000	1.866058
1.998000	1.819677
1.999000	1.796808
2.000000	1.784890
2.001000	1.775550
2.002000	1.776194
2.003000	1.766209
2.004000	1.754936
2.005000	1.733355
2.006000	1.704367
2.007000	1.667648
2.008000	1.638015
2.009000	1.625776
2.010000	1.608383
2.011000	1.598398
2.012000	1.592278
2.013000	1.575851
2.014000	1.572308
2.015000	1.586802
2.016000	1.624165
2.017000	1.619656
2.018000	1.550728
2.019000	1.508211
2.020000	1.482444
2.021000	1.469238
2.022000	1.465373
2.023000	1.477290
2.024000	1.524316
2.025000	1.597109
2.026000	1.673446
2.027000	1.724014
2.028000	1.734966
2.029000	1.756224
2.030000	1.755902
2.031000	1.741085
2.032000	1.749138
2.033000	1.716606
2.034000	1.664105
2.035000	1.619978
2.036000	1.604195
2.037000	1.599686
2.038000	1.624809
2.039000	1.651865
2.040000	1.663139
2.041000	1.614502
2.042000	1.562967
2.043000	1.521417
2.044000	1.467305
2.045000	1.437995
2.046000	1.434451
2.047000	1.450878
2.048000	1.476646
2.049000	1.501447
2.050000	1.532368
2.051000	1.546540
2.052000	1.563289
2.053000	1.577139
2.054000	1.592922
2.055000	1.613536
2.056000	1.590345
2.057000	1.551372
2.058000	1.492751
2.059000	1.429298
2.060000	1.389358
2.061000	1.385815
2.062000	1.412549
2.063000	1.470204
2.064000	1.544608
2.065000	1.647034
2.066000	1.733355
2.067000	1.775872
2.068000	1.799063
2.069000	1.730778
2.070000	1.579072
2.071000	1.377441
2.072000	1.232176
2.073000	1.151975
2.074000	1.123952
2.075000	1.131683
2.076000	1.163570
2.077000	1.218970
2.078000	1.313666
2.079000	1.427688
2.080000	1.523350
2.081000	1.592600
2.082000	1.646068
2.083000	1.684075
2.084000	1.739153
2.085000	1.792621
2.086000	1.809692
2.087000	1.809047
2.088000	1.804538
2.089000	1.823220
2.090000	1.791976
2.091000	1.653476
2.092000	1.515941
2.093000	1.439927
2.094000	1.378407
2.095000	1.294663
2.096000	1.241517
2.097000	1.251502
2.098000	1.285644
2.099000	1.324617
2.100000	1.368744
2.101000	1.439283
2.102000	1.549439
2.103000	1.650255
2.104000	1.664105
2.105000	1.612570
2.106000	1.563611
2.107000	1.504346
2.108000	1.471170
2.109000	1.479223
2.110000	1.485987
2.111000	1.511754
2.112000	1.550406
2.113000	1.589379
2.114000	1.538810
2.115000	1.452489
2.116000	1.349096
2.117000	1.257300
2.118000	1.210918
2.119000	1.251180
2.120000	1.308513
2.121000	1.386782
2.122000	1.483088
2.123000	1.569087
2.124000	1.646390
2.125000	1.689550
2.126000	1.774583
2.127000	1.882485
2.128000	1.909219
2.129000	1.886672
2.130000	1.757190
2.131000	1.605484
2.132000	1.459897
2.133000	1.333958
2.134000	1.303359
2.135000	1.318820
2.136000	1.373576
2.137000	1.432519
2.138000	1.513043
2.139000	1.592278
2.140000	1.652509
2.141000	1.656053
2.142000	1.614180
2.143000	1.565544
2.144000	1.565866
2.145000	1.510788
2.146000	1.397411
2.147000	1.283389
2.148000	1.189660
2.149000	1.056313
2.150000	0.925864
2.151000	0.861124
2.152000	0.857258
2.153000	0.886247
2.154000	0.962261
2.155000	1.065653
2.156000	1.164214
2.157000	1.298528
2.158000	1.384849
2.159000	1.424144
2.160000	1.470204
2.161000	1.551694
2.162000	1.645423
2.163000	1.724014
2.164000	1.762666
2.165000	1.794231
2.166000	1.850598
2.167000	1.949159
2.168000	2.027750
2.169000	2.094423
2.170000	2.076386
2.171000	2.053195
2.172000	2.019697
2.173000	1.879264
2.174000	1.672157
2.175000	1.393868
2.176000	1.179353
2.177000	1.030223
2.178000	0.934561
2.179000	0.888502
2.180000	0.825049
2.181000	0.756121
2.182000	0.748391
2.183000	0.774158
2.184000	0.813454
2.185000	0.888824
2.186000	0.993826
2.187000	1.141346
2.188000	1.320752
2.189000	1.483088
2.190000	1.624487
2.191000	1.733677
2.192000	1.897623
2.193000	2.051585
2.194000	2.150468
2.195000	2.221973
2.196000	2.205868
2.197000	2.101187
2.198000	1.917593
2.199000	1.771684
2.200000	1.642847
2.201000	1.504668
2.202000	1.394512
2.203000	1.282101
2.204000	1.224768
2.205000	1.229277
2.206000	1.236041
2.207000	1.265030
2.208000	1.324295
2.209000	1.480511
2.210000	1.641880
2.211000	1.740763
2.212000	1.819032
2.213000	1.824186
2.214000	1.784568
2.215000	1.825152
2.216000	1.844800
2.217000	1.855751
2.218000	1.877654
2.219000	1.872178
2.220000	1.794553
2.221000	1.697925
2.222000	1.659918
2.223000	1.583259
2.224000	1.511110
2.225000	1.471492
2.226000	1.444114
2.227000	1.429298
2.228000	1.412549
2.229000	1.395478
2.230000	1.383238
2.231000	1.350385
2.232000	1.330415
2.233000	1.330415
2.234000	1.317209
2.235000	1.318497
2.236000	1.315921
2.237000	1.298206
2.238000	1.268251
2.239000	1.233465
2.240000	1.208985
2.241000	1.221225
2.242000	1.227345
2.243000	1.238296
2.244000	1.237330
2.245000	1.240873
2.246000	1.234431
2.247000	1.194169
2.248000	1.167757
2.249000	1.186439
2.250000	1.245382
2.251000	1.309479
2.252000	1.341044
2.253000	1.408684
2.254000	1.454421
2.255000	1.493717
2.256000	1.508855
2.257000	1.518196
2.258000	1.538488
2.259000	1.564900
2.260000	1.588413
2.261000	1.556525
2.262000	1.486631
2.263000	1.442826
2.264000	1.406751
2.265000	1.342655
2.266000	1.285322
2.267000	1.233465
2.268000	1.176776
2.269000	1.138125
2.270000	1.173555
2.271000	1.313988
2.272000	1.549439
2.273000	1.758479
2.274000	1.803572
2.275000	1.721760
2.276000	1.586480
2.277000	1.471170
2.278000	1.366812
2.279000	1.297883
2.280000	1.253112
2.281000	1.299494
2.282000	1.332992
2.283000	1.447013
2.284000	1.657341
2.285000	1.897301
2.286000	2.127921
2.287000	2.233568
2.288000	2.203614
2.289000	2.085727
2.290000	1.923391
2.291000	1.783602
2.292000	1.674090
2.293000	1.586802
2.294000	1.523994
2.295000	1.482444
2.296000	1.481477
2.297000	1.506279
2.298000	1.504990
2.299000	1.495327
2.300000	1.489852
2.301000	1.466339
2.302000	1.350707
2.303000	1.240229
2.304000	1.156162
2.305000	1.118155
2.306000	1.114934
2.307000	1.139735
2.308000	1.201899
2.309000	1.297883
2.310000	1.451522
2.311000	1.693093
2.312000	1.886350
2.313000	1.951413
2.314000	1.935953
2.315000	1.845766
2.316000	1.715318
2.317000	1.587124
2.318000	1.460219
2.319000	1.360370
2.320000	1.292408
2.321000	1.266318
2.322000	1.284678
2.323000	1.292730
2.324000	1.301426
2.325000	1.334280
2.326000	1.433807
2.327000	1.590023
2.328000	1.776838
2.329000	1.884418
2.330000	1.955601
2.331000	2.011967
2.332000	2.047398
2.333000	2.102154
2.334000	2.112783
2.335000	2.060926
2.336000	1.995862
2.337000	1.872822
2.338000	1.704045
2.339000	1.574563
2.340000	1.412871
2.341000	1.229277
2.342000	1.074350
2.343000	0.960006
2.344000	0.919745
2.345000	0.952276
2.346000	1.083691
2.347000	1.342332
2.348000	1.780703
2.349000	2.227449
2.350000	2.401058
2.351000	2.422316
2.352000	2.382054
2.353000	2.263201
2.354000	2.001660
2.355000	1.811946
2.356000	1.762344
2.357000	1.839324
2.358000	1.948514
2.359000	2.115360
2.360000	2.332774
2.361000	2.362729
2.362000	2.304751
2.363000	2.278662
2.364000	2.279950
2.365000	2.174625
2.366000	1.845122
2.367000	1.394190
2.368000	1.052770
2.369000	0.854360
2.370000	0.797349
2.371000	0.883026
2.372000	1.124597
2.373000	1.539776
2.374000	2.070588
2.375000	2.413297
2.376000	2.484480
2.377000	2.497364
2.378000	2.485769
2.379000	2.421672
2.380000	2.284137
2.381000	1.996507
2.382000	1.782636
2.383000	1.765243
2.384000	2.002304
2.385000	2.297343
2.386000	2.413942
2.387000	2.458713
2.388000	2.439065
2.389000	2.372391
2.390000	2.276085
2.391000	2.180101
2.392000	2.104730
2.393000	2.129532
2.394000	2.216819
2.395000	2.316347
2.396000	2.349845
2.397000	2.341148
2.398000	2.246774
2.399000	2.025817
2.400000	1.801961
2.401000	1.541387
2.402000	1.436062
2.403000	1.447335
2.404000	1.575851
2.405000	1.832560
2.406000	2.041600
2.407000	2.119869
2.408000	2.148213
2.409000	2.181389
2.410000	2.239044
2.411000	2.292834
2.412000	2.335028
2.413000	2.334706
2.414000	2.203936
2.415000	2.000050
2.416000	1.855429
2.417000	1.747205
2.418000	1.633828
2.419000	1.609671
2.420000	1.571020
2.421000	1.599364
2.422000	1.587124
2.423000	1.405785
2.424000	1.154229
2.425000	0.980621
2.426000	0.952920
2.427000	1.122664
2.428000	1.447013
2.429000	1.927900
2.430000	2.207801
2.431000	2.270287
2.432000	2.162385
2.433000	1.986200
2.434000	1.901489
2.435000	1.800029
2.436000	1.760089
2.437000	1.744306
2.438000	1.696314
2.439000	1.711453
2.440000	1.617401
2.441000	1.513043
2.442000	1.535589
2.443000	1.500481
2.444000	1.480833
2.445000	1.442826
2.446000	1.449912
2.447000	1.530114
2.448000	1.659273
2.449000	1.669258
2.450000	1.638659
2.451000	1.508533
2.452000	1.333958
2.453000	1.202866
2.454000	1.113001
2.455000	1.034410
2.456000	0.990283
2.457000	0.969025
2.458000	0.971280
2.459000	1.006710
2.460000	1.028613
2.461000	1.041174
2.462000	1.048582
2.463000	1.068874
2.464000	1.084657
2.465000	1.115578
2.466000	1.157772
2.467000	1.216394
2.468000	1.257622
2.469000	1.313988
2.470000	1.398699
2.471000	1.465695
2.472000	1.517230
2.473000	1.500803
2.474000	1.455388
2.475000	1.439605
2.476000	1.390969
2.477000	1.348452
2.478000	1.338789
2.479000	1.322041
2.480000	1.334602
2.481000	1.352962
2.482000	1.414804
2.483000	1.468271
2.484000	1.522705
2.485000	1.587768
2.486000	1.623199
2.487000	1.634794
2.488000	1.674734
2.489000	1.724981
2.490000	1.781992
2.491000	1.785535
2.492000	1.709520
2.493000	1.581327
2.494000	1.523994
2.495000	1.510144
2.496000	1.508855
2.497000	1.516263
2.498000	1.515941
2.499000	1.532368
2.500000	1.555881
2.501000	1.566832
2.502000	1.568443
2.503000	1.569087
2.504000	1.586480
2.505000	1.627064
2.506000	1.675378
2.507000	1.840613
2.508000	2.098933
2.509000	2.285426
2.510000	2.346624
2.511000	2.314092
2.512000	2.228737
2.513000	2.075420
2.514000	1.842867
2.515000	1.531724
2.516000	1.404497
2.517000	1.359726
2.518000	1.397733
2.519000	1.451522
2.520000	1.480511
2.521000	1.492751
2.522000	1.490818
2.523000	1.495972
2.524000	1.506279
2.525000	1.517874
2.526000	1.521417
2.527000	1.529791
2.528000	1.542031
2.529000	1.563289
2.530000	1.594855
2.531000	1.619012
2.532000	1.644457
2.533000	1.682142
2.534000	1.784890
2.535000	1.932410
2.536000	2.043210
2.537000	2.131464
2.538000	2.157554
2.539000	2.115360
2.540000	2.000050
2.541000	1.839324
2.542000	1.804216
2.543000	1.771040
2.544000	1.737865
2.545000	1.696959
2.546000	1.598398
2.547000	1.506601
2.548000	1.433807
2.549000	1.430908
2.550000	1.390325
2.551000	1.387748
2.552000	1.401276
2.553000	1.418025
2.554000	1.430908
2.555000	1.446691
2.556000	1.462474
2.557000	1.467949
2.558000	1.477290
2.559000	1.482121
2.560000	1.491140
2.561000	1.496616
2.562000	1.504990
2.563000	1.518196
2.564000	1.531402
2.565000	1.543642
2.566000	1.555237
2.567000	1.563289
2.568000	1.566188
2.569000	1.571342
2.570000	1.571020
2.571000	1.570697
2.572000	1.562967
2.573000	1.546218
2.574000	1.532690
2.575000	1.520451
2.576000	1.500803
2.577000	1.483088
2.578000	1.471814
2.579000	1.479545
2.580000	1.479545
2.581000	1.480833
2.582000	1.484054
2.583000	1.483410
2.584000	1.481477
2.585000	1.485020
2.586000	1.491140
2.587000	1.486309
2.588000	1.486953
2.589000	1.475680
2.590000	1.461185
2.591000	1.450556
2.592000	1.444436
2.593000	1.445081
2.594000	1.451522
2.595000	1.462796
2.596000	1.470848
2.597000	1.480189
2.598000	1.504024
2.599000	1.519807
2.600000	1.535911
2.601000	1.567477
2.602000	1.593888
2.603000	1.615469
2.604000	1.628030
2.605000	1.645745
2.606000	1.656053
2.607000	1.669580
2.608000	1.673768
2.609000	1.690517
2.610000	1.701790
2.611000	1.724337
2.612000	1.748494
2.613000	1.765887
2.614000	1.791332
2.615000	1.817744
2.616000	1.858650
2.617000	1.894725
2.618000	1.933698
2.619000	1.966230
2.620000	1.989420
2.621000	2.016799
2.622000	2.039345
2.623000	2.067045
2.624000	2.092169
2.625000	2.101832
2.626000	2.092813
2.627000	2.079607
2.628000	2.063180
2.629000	2.044499
2.630000	2.023563
2.631000	2.014544
2.632000	1.991353
2.633000	1.988776
2.634000	1.969451
2.635000	1.943361
2.636000	1.926290
2.637000	1.912440
2.638000	1.897623
2.639000	1.872500
2.640000	1.840613
2.641000	1.816456
2.642000	1.797774
2.643000	1.782636
2.644000	1.772973
2.645000	1.767819
2.646000	1.757834
2.647000	1.751070
2.648000	1.747527
2.649000	1.740441
2.650000	1.741408
2.651000	1.762344
2.652000	1.779737
2.653000	1.796164
2.654000	1.809047
2.655000	1.821287
2.656000	1.824508
2.657000	1.819032
2.658000	1.806793
2.659000	1.792299
2.660000	1.792299
2.661000	1.783280
2.662000	1.744306
2.663000	1.719505
2.664000	1.716606
2.665000	1.710486
2.666000	1.710164
2.667000	1.718539
2.668000	1.720471
2.669000	1.728202
2.670000	1.734644
2.671000	1.729812
2.672000	1.727235
2.673000	1.725303
2.674000	1.809370
2.675000	1.915017
2.676000	1.984267
2.677000	2.008746
2.678000	1.991675
2.679000	1.938207
2.680000	1.848987
2.681000	1.757512
2.682000	1.660240
2.683000	1.575207
2.684000	1.491784
2.685000	1.416736
2.686000	1.364235
2.687000	1.329449
2.688000	1.306902
2.689000	1.294985
2.690000	1.298206
2.691000	1.297883
2.692000	1.294985
2.693000	1.295629
2.694000	1.288543
2.695000	1.283711
2.696000	1.283067
2.697000	1.277592
2.698000	1.279524
2.699000	1.280490
2.700000	1.280490
2.701000	1.273082
2.702000	1.271472
2.703000	1.267607
2.704000	1.261487
2.705000	1.258910
2.706000	1.249247
2.707000	1.242161
2.708000	1.239906
2.709000	1.236686
2.710000	1.231210
2.711000	1.229599
2.712000	1.223158
2.713000	1.230566
2.714000	1.218648
2.715000	1.217360
2.716000	1.220903
2.717000	1.222191
2.718000	1.227667
2.719000	1.241839
2.720000	1.243449
2.721000	1.254079
2.722000	1.268251
2.723000	1.270505
2.724000	1.272760
2.725000	1.273404
2.726000	1.263097
2.727000	1.246026
2.728000	1.246670
2.729000	1.238940
2.730000	1.237330
2.731000	1.239906
2.732000	1.251180
2.733000	1.265030
2.734000	1.277592
2.735000	1.289831
2.736000	1.299494
2.737000	1.307224
2.738000	1.316243
2.739000	1.330415
2.740000	1.322363
2.741000	1.320430
2.742000	1.331381
2.743000	1.342332
2.744000	1.346842
2.745000	1.355216
2.746000	1.366812
2.747000	1.372609
2.748000	1.397733
2.749000	1.419313
2.750000	1.441860
2.751000	1.471170
2.752000	1.502413
2.753000	1.531080
2.754000	1.545896
2.755000	1.550728
2.756000	1.543964
2.757000	1.523994
2.758000	1.518196
2.759000	1.522383
2.760000	1.531724
2.761000	1.553626
2.762000	1.584870
2.763000	1.623843
2.764000	1.658629
2.765000	1.692771
2.766000	1.718539
2.767000	1.746561
2.768000	1.770718
2.769000	1.794231
2.770000	1.811624
2.771000	1.820643
2.772000	1.824508
2.773000	1.823864
2.774000	1.834171
2.775000	1.850598
2.776000	1.859294
2.777000	1.861549
2.778000	1.855107
2.779000	1.841579
2.780000	1.842545
2.781000	1.850598
2.782000	1.872500
2.783000	1.893436
2.784000	1.905032
2.785000	1.908897
2.786000	1.900844
2.787000	1.914695
2.788000	1.916305
2.789000	1.887639
2.790000	1.829339
2.791000	1.804538
2.792000	1.815167
2.793000	1.862193
2.794000	1.879908
2.795000	1.892792
2.796000	1.925002
2.797000	1.944649
2.798000	1.962687
2.799000	1.939174
2.800000	1.918560
2.801000	1.892470
2.802000	1.834171
2.803000	1.786823
2.804000	1.765887
2.805000	1.750104
2.806000	1.757834
2.807000	1.734966
2.808000	1.678921
2.809000	1.633506
2.810000	1.564578
2.811000	1.513687
2.812000	1.478578
2.813000	1.446047
2.814000	1.428332
2.815000	1.429942
2.816000	1.410939
2.817000	1.390647
2.818000	1.363269
2.819000	1.345231
2.820000	1.329127
2.821000	1.324939
2.822000	1.347164
2.823000	1.336857
2.824000	1.289831
2.825000	1.227989
2.826000	1.177098
2.827000	1.154229
2.828000	1.167113
2.829000	1.237008
2.830000	1.338467
2.831000	1.447979
2.832000	1.516263
2.833000	1.586480
2.834000	1.676667
2.835000	1.772973
2.836000	1.860583
2.837000	1.874433
2.838000	1.791654
2.839000	1.678277
2.840000	1.578428
2.841000	1.507245
2.842000	1.469238
2.843000	1.470848
2.844000	1.479545
2.845000	1.513043
2.846000	1.476324
2.847000	1.401276
2.848000	1.332025
2.849000	1.286610
2.850000	1.294018
2.851000	1.296273
2.852000	1.319464
2.853000	1.340400
2.854000	1.339434
2.855000	1.305614
2.856000	1.218648
2.857000	1.155518
2.858000	1.122020
2.859000	1.113001
2.860000	1.105271
2.861000	1.113968
2.862000	1.147787
2.863000	1.216071
2.864000	1.312700
2.865000	1.411583
2.866000	1.512398
2.867000	1.633506
2.868000	1.697925
2.869000	1.719183
2.870000	1.679565
2.871000	1.610315
2.872000	1.483732
2.873000	1.283389
2.874000	1.132327
2.875000	1.036987
2.876000	1.013474
2.877000	1.048905
2.878000	1.150686
2.879000	1.292086
2.880000	1.440571
2.881000	1.572952
2.882000	1.689872
2.883000	1.850920
2.884000	1.982979
2.885000	2.059315
2.886000	2.120513
2.887000	2.174947
2.888000	2.179779
2.889000	2.198782
2.890000	2.225194
2.891000	2.194273
2.892000	2.111494
2.893000	2.029682
2.894000	2.003915
2.895000	1.897946
2.896000	1.643813
2.897000	1.247637
2.898000	0.943580
2.899000	0.805723
2.900000	0.765784
2.901000	0.818285
2.902000	0.931018
2.903000	1.106237
2.904000	1.361658
2.905000	1.645101
2.906000	1.906964
2.907000	2.110528
2.908000	2.257726
2.909000	2.299598
2.910000	2.322789
2.911000	2.354032
2.912000	2.376579
2.913000	2.370137
2.914000	2.293156
2.915000	2.077352
2.916000	1.828695
2.917000	1.559424
2.918000	1.329449
2.919000	1.207375
2.920000	1.163248
2.921000	1.132649
2.922000	1.098829
2.923000	1.075960
2.924000	1.073062
2.925000	1.071129
2.926000	1.086912
2.927000	1.103338
2.928000	1.156806
2.929000	1.206087
2.930000	1.219292
2.931000	1.278236
2.932000	1.348130
2.933000	1.417380
2.934000	1.554271
2.935000	1.728524
2.936000	1.908253
2.937000	2.061248
2.938000	2.171726
2.939000	2.222617
2.940000	2.205868
2.941000	2.117292
2.942000	1.979436
2.943000	1.833205
2.944000	1.686329
2.945000	1.572952
2.946000	1.495327
2.947000	1.453455
2.948000	1.429942
2.949000	1.419957
2.950000	1.418025
2.951000	1.454099
2.952000	1.482121
2.953000	1.429620
2.954000	1.369066
2.955000	1.349096
2.956000	1.347164
2.957000	1.334924
2.958000	1.348452
2.959000	1.415126
2.960000	1.487597
2.961000	1.560713
2.962000	1.651865
2.963000	1.715318
2.964000	1.822898
2.965000	1.839002
2.966000	1.817422
2.967000	1.743018
2.968000	1.594532
2.969000	1.457642
2.970000	1.356827
2.971000	1.310767
2.972000	1.320752
2.973000	1.311734
2.974000	1.287254
2.975000	1.295307
2.976000	1.362947
2.977000	1.434774
2.978000	1.573274
2.979000	1.726269
2.980000	1.823864
2.981000	1.872500
2.982000	1.848987
2.983000	1.785857
2.984000	1.731745
2.985000	1.775872
2.986000	1.809370
2.987000	1.878298
2.988000	2.012611
2.989000	2.069622
2.990000	2.076708
2.991000	2.020342
2.992000	1.842867
2.993000	1.713385
2.994000	1.654764
2.995000	1.641236
2.996000	1.551372
2.997000	1.373576
2.998000	1.334602
2.999000	1.263097
3.000000	1.150364
3.001000	1.084657
3.002000	1.085945
3.003000	1.117833
3.004000	1.162926
3.005000	1.233465
3.006000	1.262775
3.007000	1.238296
3.008000	1.237330
3.009000	1.252146
3.010000	1.232498
3.011000	1.256977
3.012000	1.311411
3.013000	1.375186
3.014000	1.438639
3.015000	1.497582
3.016000	1.565222
3.017000	1.669258
3.018000	1.835459
3.019000	2.001660
3.020000	2.073165
3.021000	2.149180
3.022000	2.224228
3.023000	2.217464
3.024000	2.153045
3.025000	2.040311
3.026000	1.917271
3.027000	1.772329
3.028000	1.525282
3.029000	1.342655
3.030000	1.291119
3.031000	1.329771
3.032000	1.299816
3.033000	1.216071
3.034000	1.157128
3.035000	1.125563
3.036000	1.095286
3.037000	1.040852
3.038000	0.995759
3.039000	0.986096
3.040000	0.998336
3.041000	1.060500
3.042000	1.140057
3.043000	1.205764
3.044000	1.240873
3.045000	1.315277
3.046000	1.482444
3.047000	1.815811
3.048000	2.146925
3.049000	2.401380
3.050000	2.482548
3.051000	2.497364
3.052000	2.777265
3.053000	2.778554
3.054000	2.779198
3.055000	2.778554
3.056000	2.778876
3.057000	2.775333
3.058000	2.778876
3.059000	2.777587
3.060000	2.781774
3.061000	2.767924
3.062000	2.551154
3.063000	2.386564
3.064000	1.814523
3.065000	1.509177
3.066000	1.438639
3.067000	1.506601
3.068000	1.665071
3.069000	1.804216
3.070000	1.901489
3.071000	1.966552
3.072000	2.009068
3.073000	2.028072
3.074000	2.058027
3.075000	2.056416
3.076000	2.027428
3.077000	2.014222
3.078000	2.053839
3.079000	2.086049
3.080000	2.071877
3.081000	1.989420
3.082000	1.689228
3.083000	1.403853
3.084000	1.197390
3.085000	1.121698
3.086000	1.079181
3.087000	1.048582
3.088000	1.054380
3.089000	1.172589
3.090000	1.406751
3.091000	1.666682
3.092000	1.721760
3.093000	1.700502
3.094000	1.701790
3.095000	1.638015
3.096000	1.495649
3.097000	1.411261
3.098000	1.301104
3.099000	1.170012
3.100000	1.054702
3.101000	0.993504
3.102000	0.996725
3.103000	1.042463
3.104000	1.168402
3.105000	1.390002
3.106000	1.638659
3.107000	1.717573
3.108000	1.751715
3.109000	1.670547
3.110000	1.504346
3.111000	1.498226
3.112000	2.029360
3.113000	2.472885
3.114000	2.497364
3.115000	2.497686
3.116000	2.433589
3.117000	1.988132
3.118000	1.415126
3.119000	1.109780
3.120000	0.907505
3.121000	0.821828
3.122000	0.739372
3.123000	0.679140
3.124000	0.686548
3.125000	0.691380
3.126000	0.719080
3.127000	0.724878
3.128000	0.716503
3.129000	0.704586
3.130000	0.719724
3.131000	0.759020
3.132000	0.786398
3.133000	0.821828
3.134000	0.859191
3.135000	0.852749
3.136000	0.846629
3.137000	0.860801
3.138000	0.885925
3.139000	0.857903
3.140000	0.888502
3.141000	1.086267
3.142000	1.312056
3.143000	1.659596
3.144000	2.081218
3.145000	2.151112
3.146000	2.086371
3.147000	2.095390
3.148000	2.001982
3.149000	1.841901
3.150000	1.693738
3.151000	1.573596
3.152000	1.420601
3.153000	1.244094
3.154000	1.055991
3.155000	0.867565
3.156000	0.760952
3.157000	0.788008
3.158000	0.864344
3.159000	0.976111
3.160000	1.194813
3.161000	1.557814
3.162000	1.888605
3.163000	2.169794
3.164000	2.424571
3.165000	2.499941
3.166000	2.784029
3.167000	2.780486
3.168000	2.782097
3.169000	2.778554
3.170000	2.777909
3.171000	2.776299
3.172000	2.776299
3.173000	2.777909
3.174000	2.775655
3.175000	2.773400
3.176000	2.774044
3.177000	2.776299
3.178000	2.775655
3.179000	2.775333
3.180000	2.781130
3.181000	2.779198
3.182000	2.499297
3.183000	1.967518
3.184000	1.602907
3.185000	1.517230
3.186000	1.543319
3.187000	1.639304
3.188000	1.706621
3.189000	1.557492
3.190000	1.368422
3.191000	1.561679
3.192000	1.771362
3.193000	1.668614
3.194000	1.588735
3.195000	1.648322
3.196000	1.786823
3.197000	2.109240
3.198000	2.434556
3.199000	2.498008
3.200000	2.499619
3.201000	2.495432
3.202000	2.457102
3.203000	2.418451
3.204000	2.407178
3.205000	2.394938
3.206000	2.368204
3.207000	2.356931
3.208000	2.373680
3.209000	2.367882
3.210000	2.340182
3.211000	2.342437
3.212000	2.201037
3.213000	2.122124
3.214000	2.116648
3.215000	2.099899
3.216000	2.119547
3.217000	2.041600
3.218000	2.074776
3.219000	2.066079
3.220000	2.042888
3.221000	1.921781
3.222000	1.790366
3.223000	1.636083
3.224000	1.490174
3.225000	1.385171
3.226000	1.319786
3.227000	1.331059
3.228000	1.498226
3.229000	1.766853
3.230000	2.057383
3.231000	2.308294
3.232000	2.375290
3.233000	2.381410
3.234000	2.455170
3.235000	2.498008
3.236000	2.777265
3.237000	2.775977
3.238000	2.779520
3.239000	2.773400
3.240000	2.499297
3.241000	1.684719
3.242000	1.085945
3.243000	0.789297
3.244000	0.695245
3.245000	0.688481
3.246000	0.714249
3.247000	0.751934
3.248000	0.781566
3.249000	0.805723
3.250000	0.854360
3.251000	0.918134
3.252000	0.976111
3.253000	1.024425
3.254000	1.080470
3.255000	1.143278
3.256000	1.208985
3.257000	1.271794
3.258000	1.335246
3.259000	1.395156
3.260000	1.446691
3.261000	1.482766
3.262000	1.513365
3.263000	1.578106
3.264000	1.685041
3.265000	1.778448
3.266000	1.877654
3.267000	2.028716
3.268000	2.098289
3.269000	2.080251
3.270000	1.994252
3.271000	1.886672
3.272000	1.783924
3.273000	1.654120
3.274000	1.528503
3.275000	1.503380
3.276000	1.486631
3.277000	1.459575
3.278000	1.402886
3.279000	1.355216
3.280000	1.338789
3.281000	1.327838
3.282000	1.339112
3.283000	1.348774
3.284000	1.364235
3.285000	1.379695
3.286000	1.390002
3.287000	1.401598
3.288000	1.410616
3.289000	1.400954
3.290000	1.392579
3.291000	1.403208
3.292000	1.407073
3.293000	1.404175
3.294000	1.406751
3.295000	1.412227
3.296000	1.407718
3.297000	1.405141
3.298000	1.412871
3.299000	1.426399
3.300000	1.437350
3.301000	1.452167
3.302000	1.458931
3.303000	1.456998
3.304000	1.454421
3.305000	1.485665
3.306000	1.547185
3.307000	1.614824
3.308000	1.674734
3.309000	1.699857
3.310000	1.695670
3.311000	1.653798
3.312000	1.567154
3.313000	1.451200
3.314000	1.398377
3.315000	1.430908
3.316000	1.408684
3.317000	1.406107
3.318000	1.428976
3.319000	1.473425
3.320000	1.516263
3.321000	1.547507
3.322000	1.592922
3.323000	1.629319
3.324000	1.653798
3.325000	1.653476
3.326000	1.623843
3.327000	1.571664
3.328000	1.556847
3.329000	1.543319
3.330000	1.530436
3.331000	1.537844
3.332000	1.546540
3.333000	1.556847
3.334000	1.598075
3.335000	1.640270
3.336000	1.657341
3.337000	1.659273
3.338000	1.639304
3.339000	1.602585
3.340000	1.585514
3.341000	1.598075
3.342000	1.600008
3.343000	1.592278
3.344000	1.585192
3.345000	1.589057
3.346000	1.602263
3.347000	1.620944
3.348000	1.692127
3.349000	1.787145
3.350000	1.847699
3.351000	1.868313
3.352000	1.849309
3.353000	1.795519
3.354000	1.743340
3.355000	1.652832
3.356000	1.568121
3.357000	1.557169
3.358000	1.546540
3.359000	1.553304
3.360000	1.571986
3.361000	1.600330
3.362000	1.599686
3.363000	1.599364
3.364000	1.596787
3.365000	1.597753
3.366000	1.603229
3.367000	1.618045
3.368000	1.640592
3.369000	1.655086
3.370000	1.662172
3.371000	1.673124
3.372000	1.680532
3.373000	1.692449
3.374000	1.703723
3.375000	1.709842
3.376000	1.707266
3.377000	1.710486
3.378000	1.712419
3.379000	1.708554
3.380000	1.704045
3.381000	1.713385
3.382000	1.732711
3.383000	1.749460
3.384000	1.765565
3.385000	1.774261
3.386000	1.779093
3.387000	1.757190
3.388000	1.733033
3.389000	1.705333
3.390000	1.673446
3.391000	1.648322
3.392000	1.627386
3.393000	1.631895
3.394000	1.668614
3.395000	1.698569
3.396000	1.725947
3.397000	1.744951
3.398000	1.757512
3.399000	1.742052
3.400000	1.721116
3.401000	1.700824
3.402000	1.701146
3.403000	1.688584
3.404000	1.681176
3.405000	1.669903
3.406000	1.652187
3.407000	1.653798
3.408000	1.654120
3.409000	1.651221
3.410000	1.641558
3.411000	1.634794
3.412000	1.637693
3.413000	1.646712
3.414000	1.639304
3.415000	1.648322
3.416000	1.646068
3.417000	1.650255
3.418000	1.662816
3.419000	1.683108
3.420000	1.700179
3.421000	1.726591
3.422000	1.734644
3.423000	1.731745
3.424000	1.721438
3.425000	1.702112
3.426000	1.705655
3.427000	1.711453
3.428000	1.709842
3.429000	1.705333
3.430000	1.693093
3.431000	1.681498
3.432000	1.690195
3.433000	1.697925
3.434000	1.711131
3.435000	1.718861
3.436000	1.727558
3.437000	1.740441
3.438000	1.740763
3.439000	1.725625
3.440000	1.704367
3.441000	1.677311
3.442000	1.664105
3.443000	1.670225
3.444000	1.685041
3.445000	1.689872
3.446000	1.702112
3.447000	1.703078
3.448000	1.707588
3.449000	1.712419
3.450000	1.725303
3.451000	1.747527
3.452000	1.754613
3.453000	1.754936
3.454000	1.747205
3.455000	1.728846
3.456000	1.713707
3.457000	1.701790
3.458000	1.691161
3.459000	1.697281
3.460000	1.698569
3.461000	1.689550
3.462000	1.678599
3.463000	1.673124
3.464000	1.660562
3.465000	1.642847
3.466000	1.612248
3.467000	1.619012
3.468000	1.632862
3.469000	1.652187
3.470000	1.660240
3.471000	1.675056
3.472000	1.686974
3.473000	1.685685
3.474000	1.690195
3.475000	1.695026
3.476000	1.681176
3.477000	1.640592
3.478000	1.618690
3.479000	1.623199
3.480000	1.631895
3.481000	1.635761
3.482000	1.637693
3.483000	1.633506
3.484000	1.651221
3.485000	1.681176
3.486000	1.698891
3.487000	1.689228
3.488000	1.679888
3.489000	1.656375
3.490000	1.635438
3.491000	1.616757
3.492000	1.621588
3.493000	1.632218
3.494000	1.644779
3.495000	1.662816
3.496000	1.673124
3.497000	1.689872
3.498000	1.689550
3.499000	1.675056
3.500000	1.667004
3.501000	1.657985
3.502000	1.647034
3.503000	1.648644
3.504000	1.646390
3.505000	1.654442
3.506000	1.661850
3.507000	1.676022
3.508000	1.693738
3.509000	1.729812
3.510000	1.773295
3.511000	1.793909
3.512000	1.791976
3.513000	1.773939
3.514000	1.745595
3.515000	1.695348
3.516000	1.656375
3.517000	1.628674
3.518000	1.609027
3.519000	1.583259
3.520000	1.581971
3.521000	1.579716
3.522000	1.554593
3.523000	1.538166
3.524000	1.521417
3.525000	1.495649
3.526000	1.463440
3.527000	1.432519
3.528000	1.408040
3.529000	1.394834
3.530000	1.403853
3.531000	1.417380
3.532000	1.425111
3.533000	1.434774
3.534000	1.453133
3.535000	1.465373
3.536000	1.466017
3.537000	1.466339
3.538000	1.460541
3.539000	1.450556
3.540000	1.436384
3.541000	1.423178
3.542000	1.403208
3.543000	1.384527
3.544000	1.366812
3.545000	1.370355
3.546000	1.369711
3.547000	1.368100
3.548000	1.390647
3.549000	1.456354
3.550000	1.564900
3.551000	1.619334
3.552000	1.607416
3.553000	1.572952
3.554000	1.519807
3.555000	1.451522
3.556000	1.358115
3.557000	1.269539
3.558000	1.215749
3.559000	1.203188
3.560000	1.215427
3.561000	1.240551
3.562000	1.279846
3.563000	1.279202
3.564000	1.233465
3.565000	1.179997
3.566000	1.121698
3.567000	1.081114
3.568000	1.076927
3.569000	1.083691
3.570000	1.103016
3.571000	1.119443
3.572000	1.162282
3.573000	1.247315
3.574000	1.334602
3.575000	1.425755
3.576000	1.478578
3.577000	1.497582
3.578000	1.515297
3.579000	1.483410
3.580000	1.413837
3.581000	1.349419
3.582000	1.332670
3.583000	1.323007
3.584000	1.336535
3.585000	1.361658
3.586000	1.330737
3.587000	1.297239
3.588000	1.275337
3.589000	1.277914
3.590000	1.319464
3.591000	1.393545
3.592000	1.445403
3.593000	1.501447
3.594000	1.546218
3.595000	1.460863
3.596000	1.330415
3.597000	1.252790
3.598000	1.199967
3.599000	1.156806
3.600000	1.145533
3.601000	1.181929
3.602000	1.259554
3.603000	1.293052
3.604000	1.344587
3.605000	1.448302
3.606000	1.579716
3.607000	1.732067
3.608000	1.889571
3.609000	2.038701
3.610000	2.107951
3.611000	2.189119
3.612000	2.267066
3.613000	2.288969
3.614000	2.273186
3.615000	2.236467
3.616000	2.191374
3.617000	2.126955
3.618000	2.039667
3.619000	1.921781
3.620000	1.783602
3.621000	1.676667
3.622000	1.601619
3.623000	1.518518
3.624000	1.419313
3.625000	1.332670
3.626000	1.224124
3.627000	1.138769
3.628000	1.086912
3.629000	1.086590
3.630000	1.115578
3.631000	1.167757
3.632000	1.227345
3.633000	1.291764
3.634000	1.361980
3.635000	1.412871
3.636000	1.442826
3.637000	1.471814
3.638000	1.508533
3.639000	1.516908
3.640000	1.527215
3.641000	1.565866
3.642000	1.615469
3.643000	1.667004
3.644000	1.689872
3.645000	1.703723
3.646000	1.689872
3.647000	1.677633
3.648000	1.675378
3.649000	1.639626
3.650000	1.552982
3.651000	1.443148
3.652000	1.348130
3.653000	1.274048
3.654000	1.213495
3.655000	1.110425
3.656000	1.047294
3.657000	1.014118
3.658000	1.005100
3.659000	1.024103
3.660000	1.097863
3.661000	1.208341
3.662000	1.321718
3.663000	1.459253
3.664000	1.633828
3.665000	1.822898
3.666000	1.988776
3.667000	2.128888
3.668000	2.192018
3.669000	2.205224
3.670000	2.135652
3.671000	2.024207
3.672000	1.924035
3.673000	1.870890
3.674000	1.826118
3.675000	1.678599
3.676000	1.533012
3.677000	1.404497
3.678000	1.322363
3.679000	1.300460
3.680000	1.312700
3.681000	1.280168
3.682000	1.271794
3.683000	1.294018
3.684000	1.363269
3.685000	1.504346
3.686000	1.688584
3.687000	1.874433
3.688000	2.059315
3.689000	2.154333
3.690000	2.144670
3.691000	2.015510
3.692000	1.789078
3.693000	1.596787
3.694000	1.456354
3.695000	1.348774
3.696000	1.260843
3.697000	1.189660
3.698000	1.155518
3.699000	1.199000
3.700000	1.307868
3.701000	1.332992
3.702000	1.373576
3.703000	1.440249
3.704000	1.557492
3.705000	1.689872
3.706000	1.780703
3.707000	1.786823
3.708000	1.778448
3.709000	1.798740
3.710000	1.793265
3.711000	1.760089
3.712000	1.723048
3.713000	1.712419
3.714000	1.811302
3.715000	1.914050
3.716000	1.966874
3.717000	1.953024
3.718000	1.890215
3.719000	1.807759
3.720000	1.731101
3.721000	1.671513
3.722000	1.721116
3.723000	1.758479
3.724000	1.759123
3.725000	1.740441
3.726000	1.732389
3.727000	1.731423
3.728000	1.698891
3.729000	1.591956
3.730000	1.481477
3.731000	1.418991
3.732000	1.363591
3.733000	1.328805
3.734000	1.335246
3.735000	1.390002
3.736000	1.472137
3.737000	1.490496
3.738000	1.480833
3.739000	1.464728
3.740000	1.482121
3.741000	1.511110
3.742000	1.541387
3.743000	1.570053
3.744000	1.592600
3.745000	1.630607
3.746000	1.695992
3.747000	1.823220
3.748000	2.066079
3.749000	2.217464
3.750000	2.297343
3.751000	2.343403
3.752000	2.319568
3.753000	2.202325
3.754000	2.032903
3.755000	1.857040
3.756000	1.718861
3.757000	1.619012
3.758000	1.447657
3.759000	1.267284
3.760000	1.174199
3.761000	1.143922
3.762000	1.134904
3.763000	1.156162
3.764000	1.188371
3.765000	1.210918
3.766000	1.216071
3.767000	1.227023
3.768000	1.231854
3.769000	1.229599
3.770000	1.248603
3.771000	1.318175
3.772000	1.407718
3.773000	1.575851
3.774000	1.724337
3.775000	1.869923
3.776000	1.948837
3.777000	1.935309
3.778000	1.899556
3.779000	1.896979
3.780000	1.836748
3.781000	1.695670
3.782000	1.533979
3.783000	1.425433
3.784000	1.370677
3.785000	1.321718
3.786000	1.304647
3.787000	1.351351
3.788000	1.418025
3.789000	1.468916
3.790000	1.453455
3.791000	1.406429
3.792000	1.358759
3.793000	1.327838
3.794000	1.280490
3.795000	1.243127
3.796000	1.261487
3.797000	1.324295
3.798000	1.450234
3.799000	1.547829
3.800000	1.609027
3.801000	1.710809
3.802000	1.862193
3.803000	1.952702
3.804000	2.012611
3.805000	2.049652
3.806000	2.031615
3.807000	1.889571
3.808000	1.757512
3.809000	1.666037
3.810000	1.530436
3.811000	1.493073
3.812000	1.514653
3.813000	1.514975
3.814000	1.552660
3.815000	1.518196
3.816000	1.507245
3.817000	1.484376
3.818000	1.441860
3.819000	1.358437
3.820000	1.284678
3.821000	1.326550
3.822000	1.453455
3.823000	1.563611
3.824000	1.639948
3.825000	1.708554
3.826000	1.711453
3.827000	1.681176
3.828000	1.610637
3.829000	1.480189
3.830000	1.320108
3.831000	1.180319
3.832000	1.113323
3.833000	1.085623
3.834000	1.138769
3.835000	1.287576
3.836000	1.446369
3.837000	1.549761
3.838000	1.619978
3.839000	1.666360
3.840000	1.724981
3.841000	1.755258
3.842000	1.740441
3.843000	1.718861
3.844000	1.707266
3.845000	1.654442
3.846000	1.555559
3.847000	1.465050
3.848000	1.410616
3.849000	1.436062
3.850000	1.497260
3.851000	1.485020
3.852000	1.439605
3.853000	1.332670
3.854000	1.200289
3.855000	1.094964
3.856000	1.008321
3.857000	0.963872
3.858000	0.948089
3.859000	1.013796
3.860000	1.160671
3.861000	1.339434
3.862000	1.557492
3.863000	1.772329
3.864000	1.921459
3.865000	1.987810
3.866000	1.979113
3.867000	1.931121
3.868000	1.843834
3.869000	1.747205
3.870000	1.673768
3.871000	1.746561
3.872000	1.906642
3.873000	2.293156
3.874000	2.466765
3.875000	2.470308
3.876000	2.379155
3.877000	1.963009
3.878000	1.370999
3.879000	0.963872
3.880000	0.781244
3.881000	0.706840
3.882000	0.708129
3.883000	0.755799
3.884000	0.806045
3.885000	0.928441
3.886000	1.227667
3.887000	1.620622
3.888000	1.906642
3.889000	2.015832
3.890000	2.086693
3.891000	2.136940
3.892000	2.060281
3.893000	1.895047
3.894000	1.671513
3.895000	1.300138
3.896000	1.019594
3.897000	0.859513
3.898000	0.749357
3.899000	0.723911
3.900000	0.726488
3.901000	0.767072
3.902000	0.867888
3.903000	0.977077
3.904000	1.135226
3.905000	1.332992
3.906000	1.581971
3.907000	1.798096
3.908000	1.912762
3.909000	1.862515
3.910000	1.693093
3.911000	1.554915
3.912000	1.502091
3.913000	1.484376
3.914000	1.441215
3.915000	1.445081
3.916000	1.429942
3.917000	1.414482
3.918000	1.498226
3.919000	1.528825
3.920000	1.456676
3.921000	1.380018
3.922000	1.332992
3.923000	1.335568
3.924000	1.593566
3.925000	1.879586
3.926000	2.226804
3.927000	2.401058
3.928000	2.453881
3.929000	2.422960
3.930000	2.343403
3.931000	2.120513
3.932000	2.031293
3.933000	1.827085
3.934000	1.655730
3.935000	1.578750
3.936000	1.419635
3.937000	1.211240
3.938000	1.067586
3.939000	0.948411
3.940000	0.898809
3.941000	0.847918
3.942000	0.897842
3.943000	1.046006
3.944000	1.356505
3.945000	1.763632
3.946000	2.014222
3.947000	1.993286
3.948000	1.882163
3.949000	1.763954
3.950000	1.729490
3.951000	1.683108
3.952000	1.620300
3.953000	1.657663
3.954000	1.761377
3.955000	1.932732
3.956000	1.987488
3.957000	1.912118
3.958000	1.830306
3.959000	1.817100
3.960000	1.859938
3.961000	2.045787
3.962000	2.369170
3.963000	2.445185
3.964000	2.445185
3.965000	2.367560
3.966000	2.063502
3.967000	1.764276
3.968000	1.827729
3.969000	2.255149
3.970000	2.492533
3.971000	2.780164
3.972000	2.775333
3.973000	2.775010
3.974000	2.775333
3.975000	2.778554
3.976000	2.776299
3.977000	2.777265
3.978000	2.772756
3.979000	2.725086
3.980000	2.302819
3.981000	1.730134
3.982000	1.771362
3.983000	2.239044
3.984000	2.487057
3.985000	2.498008
3.986000	2.775333
3.987000	2.775977
3.988000	2.775010
3.989000	2.772756
3.990000	2.771790
3.991000	2.777587
3.992000	2.774044
3.993000	2.775010
3.994000	2.769535
3.995000	2.775010
3.996000	2.775977
3.997000	2.772756
3.998000	2.766314
3.999000	2.771467
4.000000	2.770179
4.001000	2.757939
4.002000	2.697385
4.003000	2.773078
4.004000	2.774366
4.005000	2.775333
4.006000	2.774366
4.007000	2.766314
4.008000	2.618794
4.009000	2.379800
4.010000	1.625776
4.011000	1.214783
4.012000	1.042463
4.013000	0.950344
4.014000	0.930374
4.015000	1.008965
4.016000	1.140701
4.017000	1.300782
4.018000	1.433163
4.019000	1.512076
4.020000	1.550083
4.021000	1.541387
4.022000	1.552660
4.023000	1.681498
4.024000	1.839969
4.025000	1.865092
4.026000	1.787789
4.027000	1.676344
4.028000	1.615791
4.029000	1.606772
4.030000	1.554915
4.031000	1.504346
4.032000	1.485342
4.033000	1.539132
4.034000	1.661528
4.035000	1.781025
4.036000	1.917593
4.037000	2.002948
4.038000	2.040956
4.039000	2.054806
4.040000	2.030327
4.041000	1.984267
4.042000	1.935953
4.043000	1.890215
4.044000	1.848987
4.045000	1.832560
4.046000	1.833527
4.047000	1.846410
4.048000	1.857362
4.049000	1.867024
4.050000	1.877654
4.051000	1.895047
4.052000	1.959788
4.053000	1.994252
4.054000	1.996829
4.055000	1.968162
4.056000	1.933376
4.057000	1.886672
4.058000	1.779093
4.059000	1.690195
4.060000	1.611926
4.061000	1.590345
4.062000	1.597431
4.063000	1.630285
4.064000	1.653798
4.065000	1.639626
4.066000	1.610637
4.067000	1.589701
4.068000	1.579072
4.069000	1.584870
4.070000	1.632540
4.071000	1.696314
4.072000	1.817100
4.073000	1.910185
4.074000	1.978791
4.075000	1.980402
4.076000	1.983301
4.077000	1.960432
4.078000	1.934664
4.079000	1.836103
4.080000	1.722404
4.081000	1.784890
4.082000	2.008424
4.083000	2.207479
4.084000	2.287036
4.085000	2.234213
4.086000	2.045143
4.087000	1.808403
4.088000	1.527859
4.089000	1.333958
4.090000	1.297883
4.091000	1.399987
4.092000	1.558136
4.093000	1.651865
4.094000	1.633184
4.095000	1.552982
4.096000	1.417703
4.097000	1.319786
4.098000	1.257622
4.099000	1.249569
4.100000	1.368100
4.101000	1.549117
4.102000	1.694060
4.103000	1.848665
4.104000	2.012933
4.105000	2.088626
4.106000	2.019053
4.107000	1.874755
4.108000	1.750104
4.109000	1.633184
4.110000	1.546862
4.111000	1.462474
4.112000	1.417058
4.113000	1.372931
4.114000	1.359726
4.115000	1.323007
4.116000	1.287899
4.117000	1.299172
4.118000	1.318820
4.119000	1.311089
4.120000	1.293052
4.121000	1.290797
4.122000	1.317209
4.123000	1.351029
4.124000	1.379695
4.125000	1.401598
4.126000	1.438639
4.127000	1.456998
4.128000	1.466661
4.129000	1.493395
4.130000	1.525282
4.131000	1.564256
4.132000	1.603873
4.133000	1.640270
4.134000	1.674734
4.135000	1.697603
4.136000	1.707266
4.137000	1.708554
4.138000	1.692449
4.139000	1.676344
4.140000	1.666682
4.141000	1.655408
4.142000	1.638659
4.143000	1.622555
4.144000	1.606772
4.145000	1.575529
4.146000	1.550406
4.147000	1.551372
4.148000	1.560713
4.149000	1.566188
4.150000	1.566832
4.151000	1.559746
4.152000	1.553626
4.153000	1.543964
4.154000	1.556525
4.155000	1.546862
4.156000	1.514653
4.157000	1.485665
4.158000	1.461830
4.159000	1.449590
4.160000	1.444759
4.161000	1.430586
4.162000	1.424789
4.163000	1.409328
4.164000	1.398055
4.165000	1.390002
4.166000	1.387748
4.167000	1.396766
4.168000	1.397733
4.169000	1.390647
4.170000	1.379695
4.171000	1.369711
4.172000	1.351995
4.173000	1.337179
4.174000	1.325584
4.175000	1.323329
4.176000	1.319464
4.177000	1.324617
4.178000	1.330737
4.179000	1.334924
4.180000	1.338467
4.181000	1.341688
4.182000	1.351995
4.183000	1.358759
4.184000	1.369066
4.185000	1.378407
4.186000	1.376474
4.187000	1.370033
4.188000	1.363591
4.189000	1.347808
4.190000	1.339112
4.191000	1.331059
4.192000	1.330093
4.193000	1.335568
4.194000	1.339434
4.195000	1.351673
4.196000	1.365523
4.197000	1.379051
4.198000	1.380018
4.199000	1.389036
4.200000	1.404175
4.201000	1.409650
4.202000	1.409972
4.203000	1.405785
4.204000	1.416414
4.205000	1.427043
4.206000	1.438317
4.207000	1.448302
4.208000	1.488563
4.209000	1.517874
4.210000	1.525926
4.211000	1.517874
4.212000	1.499192
4.213000	1.472459
4.214000	1.427043
4.215000	1.384849
4.216000	1.369066
4.217000	1.393545
4.218000	1.432519
4.219000	1.465695
4.220000	1.502736
4.221000	1.529147
4.222000	1.502736
4.223000	1.443470
4.224000	1.392579
4.225000	1.326228
4.226000	1.261165
4.227000	1.220581
4.228000	1.212851
4.229000	1.195780
4.230000	1.154551
4.231000	1.154874
4.232000	1.168724
4.233000	1.171300
4.234000	1.177742
4.235000	1.179675
4.236000	1.184184
4.237000	1.185795
4.238000	1.184184
4.239000	1.172911
4.240000	1.168402
4.241000	1.167757
4.242000	1.174843
4.243000	1.179353
4.244000	1.188371
4.245000	1.199645
4.246000	1.214139
4.247000	1.217682
4.248000	1.225090
4.249000	1.234753
4.250000	1.255367
4.251000	1.273082
4.252000	1.298528
4.253000	1.300460
4.254000	1.301749
4.255000	1.298206
4.256000	1.295629
4.257000	1.288865
4.258000	1.285000
4.259000	1.278236
4.260000	1.283389
4.261000	1.301749
4.262000	1.313988
4.263000	1.326228
4.264000	1.343943
4.265000	1.358115
4.266000	1.370677
4.267000	1.390325
4.268000	1.408362
4.269000	1.433485
4.270000	1.454099
4.271000	1.461185
4.272000	1.471492
4.273000	1.477290
4.274000	1.481477
4.275000	1.491140
4.276000	1.489852
4.277000	1.474391
4.278000	1.483410
4.279000	1.486631
4.280000	1.487919
4.281000	1.489852
4.282000	1.489530
4.283000	1.472781
4.284000	1.457642
4.285000	1.432197
4.286000	1.425111
4.287000	1.434451
4.288000	1.444114
4.289000	1.443148
4.290000	1.449912
4.291000	1.460219
4.292000	1.457642
4.293000	1.475357
4.294000	1.493073
4.295000	1.516263
4.296000	1.536233
4.297000	1.560713
4.298000	1.581004
4.299000	1.611926
4.300000	1.640914
4.301000	1.669258
4.302000	1.683431
4.303000	1.677633
4.304000	1.664427
4.305000	1.641558
4.306000	1.625454
4.307000	1.622555
4.308000	1.611603
4.309000	1.612892
4.310000	1.616113
4.311000	1.617723
4.312000	1.621588
4.313000	1.640914
4.314000	1.653798
4.315000	1.685363
4.316000	1.702112
4.317000	1.742052
4.318000	1.777160
4.319000	1.804216
4.320000	1.820321
4.321000	1.815811
4.322000	1.798418
4.323000	1.788111
4.324000	1.767497
4.325000	1.732067
4.326000	1.686974
4.327000	1.680854
4.328000	1.687618
4.329000	1.695348
4.330000	1.695670
4.331000	1.703078
4.332000	1.715962
4.333000	1.733355
4.334000	1.737865
4.335000	1.740441
4.336000	1.735288
4.337000	1.733033
4.338000	1.717895
4.339000	1.706621
4.340000	1.693738
4.341000	1.674734
4.342000	1.667970
4.343000	1.660562
4.344000	1.655086
4.345000	1.658629
4.346000	1.659918
4.347000	1.663783
4.348000	1.674412
4.349000	1.681498
4.350000	1.694060
4.351000	1.712097
4.352000	1.722404
4.353000	1.721116
4.354000	1.709520
4.355000	1.714030
4.356000	1.745917
4.357000	1.825796
4.358000	1.912762
4.359000	1.994574
4.360000	2.038057
4.361000	2.056738
4.362000	2.037735
4.363000	1.984911
4.364000	1.921136
4.365000	1.853497
4.366000	1.785535
4.367000	1.721760
4.368000	1.664749
4.369000	1.590989
4.370000	1.512398
4.371000	1.452167
4.372000	1.381628
4.373000	1.313022
4.374000	1.273404
4.375000	1.267929
4.376000	1.274693
4.377000	1.323651
4.378000	1.387104
4.379000	1.437350
4.380000	1.479545
4.381000	1.527859
4.382000	1.568443
4.383000	1.611603
4.384000	1.651221
4.385000	1.689872
4.386000	1.711131
4.387000	1.719827
4.388000	1.730778
4.389000	1.727558
4.390000	1.729812
4.391000	1.741085
4.392000	1.761055
4.393000	1.776516
4.394000	1.801961
4.395000	1.843834
4.396000	1.856395
4.397000	1.889249
4.398000	1.904710
4.399000	1.911796
4.400000	1.945294
4.401000	1.983301
4.402000	2.027106
4.403000	2.060281
4.404000	2.078641
4.405000	2.070266
4.406000	2.050296
4.407000	2.035158
4.408000	2.020020
4.409000	1.985877
4.410000	1.931121
4.411000	1.866058
4.412000	1.785857
4.413000	1.694060
4.414000	1.620622
4.415000	1.586158
4.416000	1.549761
4.417000	1.501769
4.418000	1.438961
4.419000	1.381950
4.420000	1.338145
4.421000	1.281457
4.422000	1.223802
4.423000	1.185795
4.424000	1.164858
4.425000	1.160993
4.426000	1.151975
4.427000	1.141990
4.428000	1.134582
4.429000	1.137158
4.430000	1.134904
4.431000	1.149398
4.432000	1.134582
4.433000	1.128462
4.434000	1.124597
4.435000	1.112035
4.436000	1.108814
4.437000	1.144889
4.438000	1.195457
4.439000	1.265996
4.440000	1.317531
4.441000	1.358759
4.442000	1.391935
4.443000	1.389036
4.444000	1.375830
4.445000	1.362302
4.446000	1.367134
4.447000	1.351351
4.448000	1.323973
4.449000	1.305614
4.450000	1.315921
4.451000	1.340078
4.452000	1.346520
4.453000	1.286288
4.454000	1.212851
4.455000	1.144244
4.456000	1.099795
4.457000	1.087234
4.458000	1.090777
4.459000	1.104627
4.460000	1.153263
4.461000	1.217038
4.462000	1.277592
4.463000	1.335246
4.464000	1.415770
4.465000	1.503702
4.466000	1.611926
4.467000	1.707910
4.468000	1.813557
4.469000	1.902133
4.470000	1.966874
4.471000	2.007136
4.472000	2.011645
4.473000	1.991675
4.474000	1.958177
4.475000	1.910507
4.476000	1.865736
4.477000	1.823542
4.478000	1.791976
4.479000	1.778126
4.480000	1.728202
4.481000	1.633184
4.482000	1.527537
4.483000	1.415770
4.484000	1.260520
4.485000	1.151975
4.486000	1.064043
4.487000	1.025392
4.488000	1.023781
4.489000	1.059856
4.490000	1.119765
4.491000	1.181929
4.492000	1.249569
4.493000	1.328160
4.494000	1.419313
4.495000	1.508533
4.496000	1.615469
4.497000	1.722404
4.498000	1.844478
4.499000	1.944649
4.500000	2.027428
4.501000	2.148535
4.502000	2.261913
4.503000	2.305718
4.504000	2.293156
4.505000	2.229059
4.506000	2.132431
4.507000	1.991031
4.508000	1.848343
4.509000	1.705655
4.510000	1.555881
4.511000	1.400309
4.512000	1.248281
4.513000	1.144567
4.514000	1.101728
4.515000	1.094642
4.516000	1.130716
4.517000	1.196746
4.518000	1.260843
4.519000	1.322363
4.520000	1.372931
4.521000	1.389036
4.522000	1.398377
4.523000	1.417058
4.524000	1.439605
4.525000	1.497582
4.526000	1.580360
4.527000	1.657985
4.528000	1.696959
4.529000	1.662494
4.530000	1.531080
4.531000	1.386137
4.532000	1.314632
4.533000	1.306902
4.534000	1.327838
4.535000	1.358759
4.536000	1.369388
4.537000	1.354572
4.538000	1.284678
4.539000	1.186117
4.540000	1.100440
4.541000	1.032478
4.542000	0.996403
4.543000	1.008643
4.544000	1.076605
4.545000	1.176132
4.546000	1.330093
4.547000	1.599686
4.548000	1.913084
4.549000	2.178812
4.550000	2.332129
4.551000	2.371747
4.552000	2.388818
4.553000	2.386241
4.554000	2.367238
4.555000	2.285104
4.556000	2.104730
4.557000	1.871534
4.558000	1.641880
4.559000	1.478256
4.560000	1.372609
4.561000	1.291442
4.562000	1.248603
4.563000	1.236363
4.564000	1.240229
4.565000	1.263419
4.566000	1.296917
4.567000	1.334924
4.568000	1.370355
4.569000	1.458609
4.570000	1.509177
4.571000	1.499837
4.572000	1.495972
4.573000	1.540098
4.574000	1.530436
4.575000	1.471492
4.576000	1.435096
4.577000	1.425755
4.578000	1.445725
4.579000	1.455388
4.580000	1.471170
4.581000	1.495327
4.582000	1.547829
4.583000	1.622555
4.584000	1.651865
4.585000	1.650577
4.586000	1.651543
4.587000	1.681820
4.588000	1.712419
4.589000	1.696314
4.590000	1.679565
4.591000	1.662172
4.592000	1.623843
4.593000	1.570053
4.594000	1.509499
4.595000	1.462796
4.596000	1.428332
4.597000	1.423178
4.598000	1.456032
4.599000	1.492106
4.600000	1.544608
4.601000	1.541065
4.602000	1.483410
4.603000	1.468593
4.604000	1.482121
4.605000	1.491140
4.606000	1.499515
4.607000	1.551694
4.608000	1.571020
4.609000	1.540743
4.610000	1.519807
4.611000	1.523672
4.612000	1.495972
4.613000	1.499515
4.614000	1.526571
4.615000	1.595499
4.616000	1.633184
4.617000	1.632540
4.618000	1.651221
4.619000	1.634150
4.620000	1.597431
4.621000	1.616757
4.622000	1.642202
4.623000	1.640270
4.624000	1.580038
4.625000	1.526248
4.626000	1.504990
4.627000	1.460541
4.628000	1.464084
4.629000	1.545896
4.630000	1.697925
4.631000	1.858650
4.632000	1.910185
4.633000	1.891504
4.634000	1.901811
4.635000	1.884096
4.636000	1.835137
4.637000	1.791976
4.638000	1.768141
4.639000	1.706621
4.640000	1.554915
4.641000	1.411261
4.642000	1.276303
4.643000	1.191914
4.644000	1.112357
4.645000	1.123952
4.646000	1.196746
4.647000	1.257622
4.648000	1.206731
4.649000	1.140057
4.650000	1.103016
4.651000	1.077893
4.652000	1.065331
4.653000	1.115578
4.654000	1.202866
4.655000	1.334924
4.656000	1.446369
4.657000	1.520451
4.658000	1.582293
4.659000	1.662816
4.660000	1.711453
4.661000	1.753969
4.662000	1.820965
4.663000	1.868313
4.664000	1.886028
4.665000	1.905998
4.666000	1.892148
4.667000	1.866058
4.668000	1.875399
4.669000	1.897623
4.670000	1.871856
4.671000	1.816778
4.672000	1.765565
4.673000	1.730778
4.674000	1.686329
4.675000	1.623843
4.676000	1.686329
4.677000	1.816778
4.678000	1.947870
4.679000	2.097000
4.680000	2.173015
4.681000	2.198460
4.682000	2.150468
4.683000	2.062536
4.684000	1.999083
4.685000	2.024529
4.686000	2.173981
4.687000	2.257081
4.688000	2.275763
4.689000	2.268999
4.690000	2.231958
4.691000	2.083794
4.692000	1.900844
4.693000	1.772329
4.694000	1.603551
4.695000	1.345876
4.696000	1.239262
4.697000	1.246993
4.698000	1.310767
4.699000	1.446691
4.700000	1.572952
4.701000	1.642847
4.702000	1.615469
4.703000	1.494361
4.704000	1.299816
4.705000	1.082724
4.706000	0.912659
4.707000	0.782855
4.708000	0.729065
4.709000	0.702975
4.710000	0.693312
4.711000	0.686226
4.712000	0.686548
4.713000	0.689769
4.714000	0.692024
4.715000	0.692990
4.716000	0.699754
4.717000	0.696533
4.718000	0.716503
4.719000	0.731642
4.720000	0.750001
4.721000	0.787042
4.722000	0.832779
4.723000	0.899775
4.724000	0.954209
4.725000	0.977077
4.726000	0.977400
4.727000	0.972568
4.728000	0.975467
4.729000	0.976111
4.730000	0.991572
4.731000	1.026036
4.732000	1.008643
4.733000	0.992860
4.734000	1.024103
4.735000	1.065976
4.736000	1.088522
4.737000	1.095930
4.738000	1.066620
4.739000	1.011542
4.740000	0.979010
4.741000	0.963872
4.742000	0.968703
4.743000	0.990928
4.744000	1.023137
4.745000	1.053092
4.746000	1.088522
4.747000	1.143278
4.748000	1.228955
4.749000	1.279524
4.750000	1.265352
4.751000	1.232176
4.752000	1.214783
4.753000	1.228955
4.754000	1.288543
4.755000	1.380984
4.756000	1.495327
4.757000	1.617079
4.758000	1.650577
4.759000	1.655086
4.760000	1.637049
4.761000	1.626098
4.762000	1.584548
4.763000	1.518840
4.764000	1.447335
4.765000	1.403208
4.766000	1.334924
4.767000	1.300782
4.768000	1.329127
4.769000	1.446691
4.770000	1.651865
4.771000	1.885384
4.772000	2.099255
4.773000	2.156588
4.774000	2.057705
4.775000	1.755902
4.776000	1.485342
4.777000	1.400309
4.778000	1.303037
4.779000	1.280490
4.780000	1.364557
4.781000	1.492428
4.782000	1.561679
4.783000	1.656697
4.784000	1.840935
4.785000	2.011001
4.786000	2.133397
4.787000	2.282849
4.788000	2.364983
4.789000	2.376579
4.790000	2.400736
4.791000	2.429724
4.792000	2.419739
4.793000	2.307328
4.794000	1.991031
4.795000	1.827729
4.796000	1.902777
4.797000	2.103442
4.798000	2.407822
4.799000	2.496398
4.800000	2.501552
4.801000	2.777909
4.802000	2.779198
4.803000	2.771467
4.804000	2.777909
4.805000	2.776299
4.806000	2.775977
4.807000	2.775655
4.808000	2.776943
4.809000	2.775010
4.810000	2.776621
4.811000	2.777265
4.812000	2.774688
4.813000	2.712524
4.814000	2.498653
4.815000	2.260302
4.816000	2.152400
4.817000	2.173981
4.818000	2.232602
4.819000	2.129210
4.820000	1.697281
4.821000	1.248925
4.822000	1.033122
4.823000	1.006066
4.824000	1.155196
4.825000	1.440249
4.826000	1.788433
4.827000	2.090558
4.828000	2.210055
4.829000	2.240977
4.830000	2.199104
4.831000	2.127921
4.832000	2.013900
4.833000	1.934342
4.834000	1.813557
4.835000	1.663783
4.836000	1.515297
4.837000	1.389358
4.838000	1.321074
4.839000	1.299494
4.840000	1.347486
4.841000	1.365845
4.842000	1.345231
4.843000	1.340722
4.844000	1.466983
4.845000	1.687618
4.846000	1.992641
4.847000	2.204580
4.848000	2.357575
4.849000	2.470630
4.850000	2.488990
4.851000	2.465155
4.852000	2.440998
4.853000	2.430691
4.854000	2.437455
4.855000	2.254827
4.856000	1.902133
4.857000	1.754936
4.858000	1.675056
4.859000	1.668292
4.860000	1.739475
4.861000	1.749138
4.862000	1.622555
4.863000	1.447013
4.864000	1.340400
4.865000	1.321718
4.866000	1.435418
4.867000	1.685363
4.868000	2.036446
4.869000	2.387530
4.870000	2.479971
4.871000	2.495754
4.872000	2.495432
4.873000	2.489634
4.874000	2.460645
4.875000	2.425215
4.876000	2.373680
4.877000	2.362406
4.878000	2.396549
4.879000	2.437777
4.880000	2.455170
4.881000	2.449694
4.882000	2.427792
4.883000	2.362729
4.884000	2.034192
4.885000	1.645423
4.886000	1.395478
4.887000	1.323973
4.888000	1.406429
4.889000	1.668292
4.890000	1.903099
4.891000	2.128888
4.892000	2.199104
4.893000	2.226804
4.894000	2.155944
4.895000	2.068978
4.896000	2.005847
4.897000	2.043210
4.898000	2.119225
4.899000	2.197172
4.900000	2.264490
4.901000	2.293156
4.902000	2.301208
4.903000	2.286392
4.904000	2.248063
4.905000	2.058671
4.906000	1.811946
4.907000	1.660240
4.908000	1.745273
4.909000	1.796808
4.910000	1.735932
4.911000	1.637049
4.912000	1.573596
4.913000	1.541065
4.914000	1.563289
4.915000	1.595499
4.916000	1.538810
4.917000	1.431231
4.918000	1.381306
4.919000	1.391291
4.920000	1.428010
4.921000	1.448302
4.922000	1.427365
4.923000	1.417058
4.924000	1.411261
4.925000	1.429942
4.926000	1.458931
4.927000	1.495005
4.928000	1.529791
4.929000	1.541065
4.930000	1.562645
4.931000	1.643491
4.932000	1.786179
4.933000	1.984589
4.934000	2.173337
4.935000	2.198138
4.936000	2.105375
4.937000	1.935309
4.938000	1.628997
4.939000	1.295629
4.940000	1.137158
4.941000	1.069519
4.942000	1.085623
4.943000	1.113323
4.944000	1.156162
4.945000	1.186761
4.946000	1.216071
4.947000	1.234753
4.948000	1.265030
4.949000	1.281457
4.950000	1.292086
4.951000	1.354894
4.952000	1.387426
4.953000	1.385493
4.954000	1.382272
4.955000	1.368744
4.956000	1.351029
4.957000	1.341044
4.958000	1.328805
4.959000	1.313344
4.960000	1.310123
4.961000	1.321074
4.962000	1.335568
4.963000	1.344265
4.964000	1.350063
4.965000	1.355216
4.966000	1.357149
4.967000	1.375830
4.968000	1.381950
4.969000	1.385171
4.970000	1.378407
4.971000	1.357793
4.972000	1.333314
4.973000	1.317531
4.974000	1.315921
4.975000	1.309479
4.976000	1.298528
4.977000	1.298850
4.978000	1.317531
4.979000	1.329771
4.980000	1.340078
4.981000	1.391291
4.982000	1.474391
4.983000	1.417058
4.984000	1.386459
4.985000	1.370677
4.986000	1.359081
4.987000	1.356183
4.988000	1.356505
4.989000	1.386137
4.990000	1.457964
4.991000	1.532690
4.992000	1.552338
4.993000	1.522705
4.994000	1.420924
4.995000	1.317853
4.996000	1.258266
4.997000	1.250858
4.998000	1.257944
4.999000	1.270183
5.000000	1.304647
5.001000	1.398699
5.002000	1.496294
5.003000	1.590989
5.004000	1.656053
5.005000	1.522383
5.006000	1.379051
5.007000	1.278880
5.008000	1.217038
5.009000	1.218970
5.010000	1.238940
5.011000	1.269539
5.012000	1.308190
5.013000	1.338789
5.014000	1.353606
5.015000	1.360370
5.016000	1.361014
5.017000	1.372931
5.018000	1.374220
5.019000	1.386459
5.020000	1.397089
5.021000	1.416414
5.022000	1.419635
5.023000	1.410939
5.024000	1.397089
5.025000	1.370999
5.026000	1.361980
5.027000	1.365845
5.028000	1.380018
5.029000	1.408684
5.030000	1.427043
5.031000	1.438961
5.032000	1.464406
5.033000	1.491784
5.034000	1.517552
5.035000	1.545896
5.036000	1.564900
5.037000	1.572308
5.038000	1.546862
5.039000	1.534623
5.040000	1.548795
5.041000	1.562001
5.042000	1.565866
5.043000	1.571664
5.044000	1.579716
5.045000	1.584548
5.046000	1.583903
5.047000	1.593888
5.048000	1.595177
5.049000	1.587124
5.050000	1.596143
5.051000	1.619978
5.052000	1.640914
5.053000	1.650255
5.054000	1.647678
5.055000	1.640914
5.056000	1.633184
5.057000	1.630285
5.058000	1.633184
5.059000	1.633828
5.060000	1.629963
5.061000	1.632862
5.062000	1.637049
5.063000	1.639948
5.064000	1.645423
5.065000	1.647678
5.066000	1.654120
5.067000	1.671835
5.068000	1.700179
5.069000	1.697925
5.070000	1.701146
5.071000	1.694704
5.072000	1.690839
5.073000	1.671191
5.074000	1.654764
5.075000	1.641880
5.076000	1.632862
5.077000	1.637049
5.078000	1.646068
5.079000	1.649933
5.080000	1.659273
5.081000	1.673446
5.082000	1.691805
5.083000	1.720471
5.084000	1.753325
5.085000	1.771684
5.086000	1.783924
5.087000	1.793265
5.088000	1.796808
5.089000	1.790688
5.090000	1.791010
5.091000	1.786179
5.092000	1.798740
5.093000	1.826763
5.094000	1.840935
5.095000	1.836103
5.096000	1.830950
5.097000	1.832238
5.098000	1.817744
5.099000	1.762022
5.100000	1.734321
5.101000	1.720794
5.102000	1.682142
5.103000	1.631895
5.104000	1.577139
5.105000	1.556525
5.106000	1.546540
5.107000	1.529469
5.108000	1.522061
5.109000	1.515619
5.110000	1.511432
5.111000	1.509177
5.112000	1.518840
5.113000	1.505312
5.114000	1.466017
5.115000	1.464406
5.116000	1.477290
5.117000	1.488241
5.118000	1.503058
5.119000	1.513043
5.120000	1.518518
5.121000	1.512720
5.122000	1.494361
5.123000	1.478578
5.124000	1.472459
5.125000	1.475680
5.126000	1.479223
5.127000	1.486309
5.128000	1.490818
5.129000	1.499837
5.130000	1.513043
5.131000	1.532046
5.132000	1.537844
5.133000	1.554915
5.134000	1.573596
5.135000	1.586802
5.136000	1.593888
5.137000	1.604517
5.138000	1.609993
5.139000	1.606128
5.140000	1.604517
5.141000	1.595177
5.142000	1.593244
5.143000	1.591634
5.144000	1.606128
5.145000	1.621266
5.146000	1.635438
5.147000	1.666037
5.148000	1.755258
5.149000	1.836748
5.150000	1.885706
5.151000	1.887961
5.152000	1.848343
5.153000	1.764920
5.154000	1.674734
5.155000	1.590667
5.156000	1.531724
5.157000	1.504990
5.158000	1.497904
5.159000	1.508211
5.160000	1.507889
5.161000	1.512398
5.162000	1.523027
5.163000	1.542675
5.164000	1.557814
5.165000	1.571342
5.166000	1.586158
5.167000	1.602907
5.168000	1.625776
5.169000	1.636083
5.170000	1.669258
5.171000	1.719827
5.172000	1.748494
5.173000	1.757190
5.174000	1.757834
5.175000	1.737865
5.176000	1.708232
5.177000	1.683753
5.178000	1.659596
5.179000	1.632218
5.180000	1.599364
5.181000	1.577784
5.182000	1.544608
5.183000	1.530758
5.184000	1.509822
5.185000	1.509499
5.186000	1.526571
5.187000	1.541065
5.188000	1.548795
5.189000	1.542997
5.190000	1.546862
5.191000	1.567477
5.192000	1.602263
5.193000	1.628997
5.194000	1.658951
5.195000	1.682786
5.196000	1.695348
5.197000	1.692449
5.198000	1.686651
5.199000	1.689228
5.200000	1.698891
5.201000	1.734321
5.202000	1.739475
5.203000	1.705977
5.204000	1.702756
5.205000	1.708876
5.206000	1.689550
5.207000	1.647678
5.208000	1.609671
5.209000	1.586480
5.210000	1.565544
5.211000	1.555237
5.212000	1.544608
5.213000	1.536555
5.214000	1.524316
5.215000	1.503058
5.216000	1.486631
5.217000	1.476968
5.218000	1.473103
5.219000	1.470204
5.220000	1.471170
5.221000	1.463440
5.222000	1.456676
5.223000	1.464728
5.224000	1.474391
5.225000	1.486631
5.226000	1.491784
5.227000	1.535589
5.228000	1.506279
5.229000	1.466017
5.230000	1.450878
5.231000	1.448946
5.232000	1.465373
5.233000	1.495649
5.234000	1.511110
5.235000	1.518518
5.236000	1.519807
5.237000	1.530758
5.238000	1.529469
5.239000	1.540743
5.240000	1.534301
5.241000	1.537200
5.242000	1.554915
5.243000	1.573918
5.244000	1.599042
5.245000	1.614824
5.246000	1.607416
5.247000	1.617401
5.248000	1.638015
5.249000	1.627708
5.250000	1.629319
5.251000	1.621266
5.252000	1.599364
5.253000	1.576173
5.254000	1.555237
5.255000	1.537200
5.256000	1.515619
5.257000	1.495005
5.258000	1.466017
5.259000	1.458609
5.260000	1.436706
5.261000	1.417058
5.262000	1.420924
5.263000	1.442826
5.264000	1.488885
5.265000	1.542997
5.266000	1.577461
5.267000	1.603873
5.268000	1.623521
5.269000	1.607416
5.270000	1.567799
5.271000	1.495649
5.272000	1.429298
5.273000	1.390647
5.274000	1.369388
5.275000	1.358115
5.276000	1.335891
5.277000	1.349419
5.278000	1.384849
5.279000	1.425433
5.280000	1.462152
5.281000	1.470848
5.282000	1.462796
5.283000	1.456354
5.284000	1.458931
5.285000	1.467305
5.286000	1.478901
5.287000	1.479223
5.288000	1.473747
5.289000	1.445725
5.290000	1.411583
5.291000	1.393223
5.292000	1.405141
5.293000	1.427688
5.294000	1.433163
5.295000	1.441538
5.296000	1.451200
5.297000	1.445725
5.298000	1.458609
5.299000	1.474391
5.300000	1.484698
5.301000	1.491784
5.302000	1.487919
5.303000	1.486631
5.304000	1.480189
5.305000	1.467305
5.306000	1.460541
5.307000	1.465050
5.308000	1.459575
5.309000	1.447335
5.310000	1.440249
5.311000	1.429298
5.312000	1.418347
5.313000	1.405141
5.314000	1.392579
5.315000	1.402242
5.316000	1.437028
5.317000	1.488885
5.318000	1.545896
5.319000	1.576817
5.320000	1.576817
5.321000	1.553949
5.322000	1.536878
5.323000	1.543964
5.324000	1.552338
5.325000	1.567799
5.326000	1.587124
5.327000	1.596787
5.328000	1.616435
5.329000	1.640914
5.330000	1.669580
5.331000	1.672801
5.332000	1.662816
5.333000	1.658307
5.334000	1.660884
5.335000	1.655408
5.336000	1.632862
5.337000	1.624165
5.338000	1.646068
5.339000	1.693415
5.340000	1.750748
5.341000	1.768464
5.342000	1.766853
5.343000	1.768464
5.344000	1.787145
5.345000	1.794231
5.346000	1.787467
5.347000	1.816778
5.348000	1.925968
5.349000	2.027750
5.350000	2.049008
5.351000	2.016476
5.352000	1.978469
5.353000	1.958177
5.354000	1.937241
5.355000	1.936919
5.356000	1.921459
5.357000	1.902777
5.358000	1.886672
5.359000	1.884096
5.360000	1.899878
5.361000	1.929189
5.362000	1.953024
5.363000	1.985233
5.364000	1.994252
5.365000	1.984267
5.366000	1.971705
5.367000	1.958177
5.368000	1.928545
5.369000	1.850920
5.370000	1.777482
5.371000	1.686651
5.372000	1.635761
5.373000	1.609993
5.374000	1.618045
5.375000	1.619978
5.376000	1.628997
5.377000	1.654442
5.378000	1.699213
5.379000	1.764598
5.380000	1.862193
5.381000	1.991675
5.382000	2.080251
5.383000	2.125345
5.384000	2.147569
5.385000	2.152078
5.386000	2.155944
5.387000	2.144348
5.388000	2.119869
5.389000	2.066723
5.390000	2.007136
5.391000	1.882485
5.392000	1.719183
5.393000	1.586802
5.394000	1.529469
5.395000	1.482121
5.396000	1.436706
5.397000	1.419313
5.398000	1.428976
5.399000	1.458931
5.400000	1.533979
5.401000	1.632218
5.402000	1.712097
5.403000	1.786179
5.404000	1.871534
5.405000	1.886994
5.406000	1.876043
5.407000	1.855107
5.408000	1.860905
5.409000	1.876365
5.410000	1.886350
5.411000	1.879586
5.412000	1.853497
5.413000	1.835137
5.414000	1.806471
5.415000	1.735610
5.416000	1.651865
5.417000	1.590345
5.418000	1.555559
5.419000	1.533334
5.420000	1.509177
5.421000	1.489208
5.422000	1.481155
5.423000	1.478256
5.424000	1.494039
5.425000	1.498226
5.426000	1.510466
5.427000	1.455388
5.428000	1.348452
5.429000	1.261809
5.430000	1.221547
5.431000	1.215105
5.432000	1.246670
5.433000	1.322041
5.434000	1.376797
5.435000	1.441538
5.436000	1.548795
5.437000	1.669258
5.438000	1.665393
5.439000	1.580360
5.440000	1.498870
5.441000	1.393868
5.442000	1.311089
5.443000	1.251502
5.444000	1.240873
5.445000	1.306902
5.446000	1.423500
5.447000	1.521417
5.448000	1.608705
5.449000	1.673124
5.450000	1.714352
5.451000	1.700179
5.452000	1.674412
5.453000	1.647034
5.454000	1.610959
5.455000	1.588413
5.456000	1.544608
5.457000	1.482444
5.458000	1.435418
5.459000	1.377763
5.460000	1.288865
5.461000	1.173233
5.462000	1.049871
5.463000	0.924576
5.464000	0.856936
5.465000	0.823116
5.466000	0.821184
5.467000	0.845663
5.468000	0.874974
5.469000	0.898486
5.470000	0.926509
5.471000	0.969669
5.472000	1.043107
5.473000	1.144567
5.474000	1.269217
5.475000	1.411905
5.476000	1.569087
5.477000	1.705977
5.478000	1.729812
5.479000	1.677311
5.480000	1.643491
5.481000	1.630607
5.482000	1.626098
5.483000	1.600008
5.484000	1.558780
5.485000	1.528181
5.486000	1.483410
5.487000	1.362624
5.488000	1.288221
5.489000	1.223480
5.490000	1.161960
5.491000	1.107848
5.492000	1.027968
5.493000	0.956786
5.494000	0.916846
5.495000	0.900419
5.496000	0.896554
5.497000	0.915235
5.498000	0.953565
5.499000	1.003167
5.500000	1.062432
5.501000	1.118155
5.502000	1.185150
5.503000	1.272760
5.504000	1.363269
5.505000	1.433163
5.506000	1.500159
5.507000	1.582615
5.508000	1.644779
5.509000	1.690839
5.510000	1.699213
5.511000	1.662816
5.512000	1.599042
5.513000	1.573274
5.514000	1.545252
5.515000	1.506279
5.516000	1.485020
5.517000	1.460541
5.518000	1.463118
5.519000	1.471814
5.520000	1.498548
5.521000	1.441215
5.522000	1.328482
5.523000	1.250858
5.524000	1.215749
5.525000	1.252146
5.526000	1.320430
5.527000	1.386459
5.528000	1.428332
5.529000	1.500159
5.530000	1.659918
5.531000	1.781347
5.532000	1.794553
5.533000	1.756224
5.534000	1.731423
5.535000	1.656375
5.536000	1.631895
5.537000	1.620622
5.538000	1.596787
5.539000	1.527859
5.540000	1.495005
5.541000	1.436384
5.542000	1.341044
5.543000	1.266640
5.544000	1.222835
5.545000	1.222191
5.546000	1.252468
5.547000	1.309479
5.548000	1.405141
5.549000	1.515619
5.550000	1.620622
5.551000	1.823220
5.552000	2.039667
5.553000	2.195239
5.554000	2.258692
5.555000	2.263845
5.556000	2.266422
5.557000	2.228737
5.558000	2.141127
5.559000	2.022274
5.560000	1.897301
5.561000	1.759445
5.562000	1.631573
5.563000	1.490174
5.564000	1.380018
5.565000	1.332025
5.566000	1.295629
5.567000	1.244094
5.568000	1.249247
5.569000	1.278558
5.570000	1.320430
5.571000	1.348130
5.572000	1.356505
5.573000	1.431231
5.574000	1.521095
5.575000	1.573918
5.576000	1.605162
5.577000	1.635761
5.578000	1.626098
5.579000	1.497904
5.580000	1.434129
5.581000	1.437028
5.582000	1.472459
5.583000	1.556847
5.584000	1.626098
5.585000	1.600330
5.586000	1.521095
5.587000	1.461185
5.588000	1.418669
5.589000	1.409650
5.590000	1.453133
5.591000	1.497904
5.592000	1.537522
5.593000	1.580682
5.594000	1.598075
5.595000	1.554915
5.596000	1.460863
5.597000	1.417703
5.598000	1.454421
5.599000	1.526893
5.600000	1.541065
5.601000	1.550083
5.602000	1.600652
5.603000	1.775228
5.604000	1.963009
5.605000	2.025817
5.606000	1.911151
5.607000	1.703400
5.608000	1.489530
5.609000	1.303681
5.610000	1.213495
5.611000	1.160349
5.612000	1.190626
5.613000	1.269217
5.614000	1.291764
5.615000	1.258266
5.616000	1.247637
5.617000	1.248603
5.618000	1.220903
5.619000	1.191914
5.620000	1.148432
5.621000	1.094964
5.622000	1.076927
5.623000	1.106881
5.624000	1.186439
5.625000	1.277914
5.626000	1.281457
5.627000	1.292730
5.628000	1.321396
5.629000	1.313344
5.630000	1.322041
5.631000	1.315277
5.632000	1.331059
5.633000	1.365523
5.634000	1.396766
5.635000	1.409328
5.636000	1.468593
5.637000	1.622233
5.638000	1.788755
5.639000	1.860905
5.640000	1.793587
5.641000	1.647356
5.642000	1.461507
5.643000	1.319142
5.644000	1.211884
5.645000	1.074028
5.646000	1.010253
5.647000	1.082724
5.648000	1.295629
5.649000	1.522705
5.650000	1.731423
5.651000	1.977825
5.652000	2.218430
5.653000	2.309905
5.654000	2.298310
5.655000	2.134041
5.656000	1.883773
5.657000	1.588735
5.658000	1.300782
5.659000	1.129106
5.660000	0.981587
5.661000	0.893977
5.662000	0.844375
5.663000	0.845663
5.664000	0.856936
5.665000	0.900097
5.666000	1.002845
5.667000	1.176454
5.668000	1.322363
5.669000	1.432197
5.670000	1.436062
5.671000	1.369711
5.672000	1.317531
5.673000	1.285322
5.674000	1.278880
5.675000	1.321074
5.676000	1.396766
5.677000	1.527537
5.678000	1.548473
5.679000	1.499515
5.680000	1.387104
5.681000	1.279202
5.682000	1.385815
5.683000	1.572952
5.684000	1.818388
5.685000	1.988776
5.686000	1.902455
5.687000	1.692449
5.688000	1.617401
5.689000	1.586480
5.690000	1.477934
5.691000	1.312056
5.692000	1.166791
5.693000	1.155518
5.694000	1.344909
5.695000	1.579072
5.696000	1.738509
5.697000	1.842867
5.698000	1.858650
5.699000	1.894725
5.700000	1.849631
5.701000	1.709198
5.702000	1.514331
5.703000	1.362302
5.704000	1.340078
5.705000	1.427365
5.706000	1.692449
5.707000	2.189441
5.708000	2.488990
5.709000	2.773722
5.710000	2.775010
5.711000	2.774044
5.712000	2.772112
5.713000	2.750853
5.714000	2.276729
5.715000	1.369711
5.716000	1.015407
5.717000	1.054058
5.718000	1.409972
5.719000	1.916627
5.720000	2.132431
5.721000	2.021630
5.722000	1.581327
5.723000	1.170978
5.724000	1.097219
5.725000	1.308513
5.726000	1.702756
5.727000	2.068334
5.728000	2.350811
5.729000	2.402024
5.730000	2.371747
5.731000	2.307972
5.732000	2.306040
5.733000	2.335350
5.734000	2.383021
5.735000	2.437132
5.736000	2.453559
5.737000	2.411043
5.738000	2.165284
5.739000	1.837714
5.740000	1.569087
5.741000	1.389036
5.742000	1.526248
5.743000	1.803250
5.744000	2.120835
5.745000	2.376901
5.746000	2.470630
5.747000	2.494788
5.748000	2.773078
5.749000	2.772112
5.750000	2.765026
5.751000	2.775977
5.752000	2.773722
5.753000	2.775010
5.754000	2.775977
5.755000	2.772434
5.756000	2.774044
5.757000	2.774688
5.758000	2.775977
5.759000	2.761160
5.760000	2.499619
5.761000	2.191374
5.762000	1.858650
5.763000	1.876043
5.764000	2.150790
5.765000	2.374646
5.766000	2.345335
5.767000	2.146925
5.768000	1.869923
5.769000	1.793265
5.770000	1.847055
5.771000	1.960110
5.772000	2.041278
5.773000	2.139517
5.774000	2.216175
5.775000	2.209411
5.776000	2.113105
5.777000	2.096356
5.778000	2.140483
5.779000	2.249995
5.780000	2.333418
5.781000	2.374646
5.782000	2.390107
5.783000	2.401380
5.784000	2.462578
5.785000	2.494143
5.786000	2.496720
5.787000	2.472241
5.788000	2.322467
5.789000	2.020342
5.790000	1.779415
5.791000	1.619978
5.792000	1.633506
5.793000	1.631251
5.794000	1.723048
5.795000	1.884740
5.796000	2.057060
5.797000	2.130176
5.798000	2.191374
5.799000	2.256115
5.800000	2.252894
5.801000	2.221007
5.802000	2.056094
5.803000	1.806793
5.804000	1.576817
5.805000	1.421890
5.806000	1.368422
5.807000	1.372609
5.808000	1.432197
5.809000	1.497904
5.810000	1.576817
5.811000	1.658307
5.812000	1.743340
5.813000	1.818066
5.814000	1.879264
5.815000	1.936275
5.816000	2.005847
5.817000	1.982334
5.818000	1.905998
5.819000	1.833849
5.820000	1.692127
5.821000	1.567477
5.822000	1.442826
5.823000	1.346520
5.824000	1.270828
5.825000	1.225412
5.826000	1.210596
5.827000	1.192881
5.828000	1.188693
5.829000	1.184828
5.830000	1.182252
5.831000	1.182574
5.832000	1.163570
5.833000	1.170978
5.834000	1.210918
5.835000	1.266962
5.836000	1.343943
5.837000	1.391291
5.838000	1.399665
5.839000	1.382272
5.840000	1.362624
5.841000	1.324295
5.842000	1.274371
5.843000	1.252146
5.844000	1.240229
5.845000	1.226056
5.846000	1.268251
5.847000	1.398055
5.848000	1.556525
5.849000	1.791654
5.850000	2.010679
5.851000	2.226160
5.852000	2.340826
5.853000	2.368204
5.854000	2.221329
5.855000	1.875077
5.856000	1.515941
5.857000	1.314310
5.858000	1.236363
5.859000	1.247637
5.860000	1.258588
5.861000	1.221869
5.862000	1.143278
5.863000	1.053414
5.864000	0.981587
5.865000	0.929408
5.866000	0.913625
5.867000	0.908149
5.868000	0.940359
5.869000	1.002523
5.870000	1.067264
5.871000	1.137480
5.872000	1.181929
5.873000	1.212851
5.874000	1.235075
5.875000	1.247315
5.876000	1.249891
5.877000	1.272760
5.878000	1.329127
5.879000	1.398699
5.880000	1.464084
5.881000	1.591956
5.882000	1.714030
5.883000	1.722726
5.884000	1.632540
5.885000	1.508211
5.886000	1.542997
5.887000	1.687296
5.888000	1.819677
5.889000	1.867669
5.890000	1.790688
5.891000	1.539776
5.892000	1.286932
5.893000	1.165181
5.894000	1.110102
5.895000	1.081114
5.896000	1.060500
5.897000	1.092065
5.898000	1.131361
5.899000	1.128140
5.900000	1.103983
5.901000	1.096574
5.902000	1.096574
5.903000	1.098507
5.904000	1.101406
5.905000	1.111713
5.906000	1.130072
5.907000	1.145211
5.908000	1.160349
5.909000	1.187083
5.910000	1.222191
5.911000	1.206409
5.912000	1.221547
5.913000	1.250213
5.914000	1.287899
5.915000	1.315277
5.916000	1.342655
5.917000	1.374542
5.918000	1.398055
5.919000	1.414804
5.920000	1.442182
5.921000	1.462796
5.922000	1.467949
5.923000	1.481477
5.924000	1.458286
5.925000	1.391935
5.926000	1.356183
5.927000	1.323973
5.928000	1.338467
5.929000	1.348130
5.930000	1.354250
5.931000	1.362947
5.932000	1.396766
5.933000	1.437672
5.934000	1.466339
5.935000	1.472137
5.936000	1.462152
5.937000	1.453133
5.938000	1.463762
5.939000	1.498870
5.940000	1.527537
5.941000	1.530436
5.942000	1.503380
5.943000	1.495649
5.944000	1.517874
5.945000	1.535267
5.946000	1.526893
5.947000	1.580682
5.948000	1.674734
5.949000	1.740119
5.950000	1.759445
5.951000	1.761377
5.952000	1.755258
5.953000	1.676989
5.954000	1.613214
5.955000	1.562001
5.956000	1.514975
5.957000	1.529469
5.958000	1.564578
5.959000	1.613214
5.960000	1.676667
5.961000	1.707588
5.962000	1.699213
5.963000	1.682786
5.964000	1.714030
5.965000	1.706621
5.966000	1.700824
5.967000	1.686651
5.968000	1.697603
5.969000	1.716928
5.970000	1.755258
5.971000	1.791010
5.972000	1.828695
5.973000	1.916949
5.974000	2.012611
5.975000	2.022596
5.976000	1.977503
5.977000	1.914695
5.978000	1.863804
5.979000	1.788111
5.980000	1.700502
5.981000	1.639948
5.982000	1.639304
5.983000	1.662816
5.984000	1.691805
5.985000	1.716928
5.986000	1.723692
5.987000	1.729812
5.988000	1.735288
5.989000	1.748816
5.990000	1.808081
5.991000	1.919204
5.992000	2.010035
5.993000	2.092491
5.994000	2.173015
5.995000	2.179779
5.996000	2.129210
5.997000	2.060281
5.998000	1.965908
5.999000	1.887961
6.000000	1.807437
6.001000	1.713707
6.002000	1.707266
6.003000	1.753003
6.004000	1.789078
6.005000	1.820643
6.006000	1.836426
6.007000	1.843834
6.008000	1.834171
6.009000	1.825796
6.010000	1.873466
6.011000	1.952058
6.012000	1.970739
6.013000	2.035480
6.014000	2.121157
6.015000	2.235179
6.016000	2.265134
6.017000	2.188475
6.018000	2.076708
6.019000	1.943039
6.020000	1.834493
6.021000	1.704367
6.022000	1.533334
6.023000	1.408040
6.024000	1.308835
6.025000	1.274371
6.026000	1.280490
6.027000	1.319464
6.028000	1.370999
6.029000	1.416414
6.030000	1.464728
6.031000	1.504990
6.032000	1.533012
6.033000	1.555237
6.034000	1.585514
6.035000	1.617723
6.036000	1.637049
6.037000	1.657663
6.038000	1.729168
6.039000	1.819999
6.040000	1.981046
6.041000	2.260624
6.042000	2.380766
6.043000	2.393650
6.044000	2.350811
6.045000	2.204580
6.046000	1.983623
6.047000	1.752681
6.048000	1.535267
6.049000	1.383561
6.050000	1.228311
6.051000	1.180963
6.052000	1.231210
6.053000	1.282745
6.054000	1.306902
6.055000	1.317209
6.056000	1.318820
6.057000	1.318175
6.058000	1.313344
6.059000	1.315921
6.060000	1.332670
6.061000	1.351673
6.062000	1.366812
6.063000	1.385493
6.064000	1.403530
6.065000	1.417058
6.066000	1.432197
6.067000	1.452167
6.068000	1.462796
6.069000	1.458609
6.070000	1.455066
6.071000	1.448302
6.072000	1.439927
6.073000	1.435096
6.074000	1.442826
6.075000	1.450234
6.076000	1.449912
6.077000	1.458286
6.078000	1.439605
6.079000	1.423500
6.080000	1.408040
6.081000	1.393868
6.082000	1.377441
6.083000	1.374220
6.084000	1.367778
6.085000	1.373576
6.086000	1.379051
6.087000	1.374542
6.088000	1.362302
6.089000	1.340722
6.090000	1.305292
6.091000	1.285966
6.092000	1.276947
6.093000	1.280812
6.094000	1.311734
6.095000	1.346842
6.096000	1.395800
6.097000	1.421568
6.098000	1.421246
6.099000	1.410939
6.100000	1.398699
6.101000	1.362947
6.102000	1.329127
6.103000	1.326228
6.104000	1.332348
6.105000	1.329127
6.106000	1.322041
6.107000	1.296273
6.108000	1.263097
6.109000	1.236363
6.110000	1.216716
6.111000	1.205120
6.112000	1.185150
6.113000	1.175488
6.114000	1.175488
6.115000	1.203188
6.116000	1.230566
6.117000	1.251180
6.118000	1.259876
6.119000	1.265996
6.120000	1.269217
6.121000	1.260843
6.122000	1.250213
6.123000	1.241839
6.124000	1.245704
6.125000	1.250858
6.126000	1.249891
6.127000	1.258266
6.128000	1.269217
6.129000	1.296595
6.130000	1.322041
6.131000	1.342977
6.132000	1.357149
6.133000	1.361980
6.134000	1.355860
6.135000	1.333636
6.136000	1.324939
6.137000	1.317209
6.138000	1.308835
6.139000	1.302071
6.140000	1.301749
6.141000	1.317853
6.142000	1.334602
6.143000	1.366490
6.144000	1.403530
6.145000	1.427043
6.146000	1.456032
6.147000	1.472781
6.148000	1.485987
6.149000	1.474391
6.150000	1.490818
6.151000	1.530114
6.152000	1.559746
6.153000	1.583903
6.154000	1.598398
6.155000	1.602907
6.156000	1.598720
6.157000	1.595821
6.158000	1.586158
6.159000	1.597431
6.160000	1.615147
6.161000	1.629319
6.162000	1.623521
6.163000	1.633828
6.164000	1.660884
6.165000	1.702434
6.166000	1.758479
6.167000	1.850598
6.168000	1.940462
6.169000	2.029038
6.170000	2.076708
6.171000	2.101187
6.172000	2.091202
6.173000	2.069300
6.174000	2.027428
6.175000	1.948192
6.176000	1.860583
6.177000	1.770074
6.178000	1.694704
6.179000	1.610315
6.180000	1.563611
6.181000	1.551694
6.182000	1.539454
6.183000	1.515941
6.184000	1.519807
6.185000	1.543964
6.186000	1.552982
6.187000	1.564256
6.188000	1.568765
6.189000	1.578106
6.190000	1.598398
6.191000	1.612570
6.192000	1.619978
6.193000	1.630607
6.194000	1.654764
6.195000	1.676989
6.196000	1.689550
6.197000	1.697281
6.198000	1.710809
6.199000	1.710164
6.200000	1.721116
6.201000	1.728846
6.202000	1.738187
6.203000	1.739153
6.204000	1.735610
6.205000	1.725947
6.206000	1.719505
6.207000	1.712097
6.208000	1.699857
6.209000	1.694060
6.210000	1.691805
6.211000	1.690839
6.212000	1.688906
6.213000	1.689550
6.214000	1.683108
6.215000	1.683753
6.216000	1.690195
6.217000	1.693738
6.218000	1.690195
6.219000	1.688906
6.220000	1.681498
6.221000	1.670225
6.222000	1.662816
6.223000	1.659596
6.224000	1.645423
6.225000	1.639304
6.226000	1.626420
6.227000	1.624165
6.228000	1.623199
6.229000	1.624809
6.230000	1.625454
6.231000	1.622233
6.232000	1.627708
6.233000	1.624809
6.234000	1.626098
6.235000	1.619656
6.236000	1.620622
6.237000	1.618690
6.238000	1.607738
6.239000	1.578106
6.240000	1.557169
6.241000	1.539776
6.242000	1.539776
6.243000	1.548473
6.244000	1.551694
6.245000	1.558136
6.246000	1.574240
6.247000	1.588413
6.248000	1.590667
6.249000	1.585836
6.250000	1.581327
6.251000	1.586802
6.252000	1.594532
6.253000	1.599686
6.254000	1.593566
6.255000	1.597431
6.256000	1.610959
6.257000	1.611926
6.258000	1.611281
6.259000	1.615469
6.260000	1.619978
6.261000	1.633506
6.262000	1.631895
6.263000	1.617079
6.264000	1.595177
6.265000	1.581971
6.266000	1.596787
6.267000	1.608383
6.268000	1.612570
6.269000	1.619334
6.270000	1.607738
6.271000	1.618690
6.272000	1.593244
6.273000	1.557492
6.274000	1.518518
6.275000	1.513365
6.276000	1.531402
6.277000	1.540743
6.278000	1.557169
6.279000	1.577784
6.280000	1.603229
6.281000	1.616435
6.282000	1.607738
6.283000	1.578750
6.284000	1.549761
6.285000	1.518518
6.286000	1.506279
6.287000	1.501125
6.288000	1.523027
6.289000	1.553626
